Data from Anodorhynchus_glaucus_head_Reflection_2.txt Node
Date: Wed Mar 10 12:56:03 GMT-03:00 2021
User: Darío
Spectrometer: USB2E3644
Trigger mode: 4
Integration Time (sec): 5.600000E-2
Scans to average: 10
Electric dark correction enabled: true
Nonlinearity correction enabled: false
Boxcar width: 10
XAxis mode: Wavelengths
Number of Pixels in Spectrum: 2048
>>>>>Begin Spectral Data<<<<<
178.315	236.03
178.696	189.41
179.076	170.44
179.457	138.54
179.838	127.23
180.218	130.04
180.599	120.06
180.979	1600
181.36	77.59
181.74	98.5
182.121	111.49
182.501	121.28
182.881	133.61
183.262	125.39
183.642	121.93
184.022	114.68
184.402	116.8
184.783	130.57
185.163	140.93
185.543	142.18
185.923	148.59
186.303	151.87
186.683	151.02
187.063	142.87
187.443	130.09
187.823	123.66
188.203	124.06
188.583	122.61
188.963	124.27
189.343	127.11
189.723	122.2
190.102	125.55
190.482	129.61
190.862	127.82
191.242	129.84
191.621	125.84
192.001	125.12
192.38	124.67
192.76	121.73
193.14	120.41
193.519	121.05
193.898	120.23
194.278	121.72
194.657	121.03
195.037	121.16
195.416	124.68
195.795	125.91
196.175	126.02
196.554	125.81
196.933	125.08
197.312	127.57
197.692	130.88
198.071	130.78
198.45	131.62
198.829	131.3
199.208	130.35
199.587	132.03
199.966	134.72
200.345	138.31
200.724	140.76
201.103	141.6
201.482	142.21
201.86	145.3
202.239	146.76
202.618	148.37
202.997	153.41
203.375	151.87
203.754	151.12
204.133	146.75
204.511	148.16
204.89	145.68
205.269	141.44
205.647	141.69
206.026	141.23
206.404	141.04
206.782	144.95
207.161	149.63
207.539	156.62
207.918	156.42
208.296	155.08
208.674	156.94
209.052	160.27
209.431	158.95
209.809	154.62
210.187	155.23
210.565	157.46
210.943	158.44
211.321	164.01
211.699	171.7
212.077	187.97
212.455	192.71
212.833	210.64
213.211	217.82
213.589	227.64
213.967	221.07
214.345	217.23
214.722	206.54
215.1	203.4
215.478	210.66
215.855	217.85
216.233	228.91
216.611	220.64
216.988	208.26
217.366	218.96
217.743	249.08
218.121	265.37
218.498	293.87
218.876	294.82
219.253	316.15
219.631	365.35
220.008	348.09
220.385	426.14
220.762	400.25
221.14	490.12
221.517	535.81
221.894	942.77
222.271	1377.12
222.648	5825
223.025	5996.43
223.402	2010.23
223.78	4557.5
224.157	1384.56
224.533	966.84
224.91	763.67
225.287	612.73
225.664	544.59
226.041	567.3
226.418	525.86
226.795	493.72
227.171	533.73
227.548	579.64
227.925	658.23
228.301	622.25
228.678	754.7
229.055	682.01
229.431	850.39
229.808	911.89
230.184	811.79
230.561	803.02
230.937	1205.45
231.313	1408.72
231.69	2852.44
232.066	-5179.55
232.442	-1752.34
232.819	-1088.83
233.195	-1271.98
233.571	-2460.2
233.947	63275
234.323	4104.69
234.699	4643.1
235.075	6687.5
235.451	-33362.5
235.827	-2497.12
236.203	-1534.71
236.579	-1011.16
236.955	-557.11
237.331	-423.54
237.707	-306.15
238.083	-237.37
238.459	-178.81
238.834	-145.1
239.21	-120.4
239.586	-110.99
239.961	-98.03
240.337	-91.01
240.713	-83.31
241.088	-75.55
241.464	-68.11
241.839	-61.22
242.215	-52.97
242.59	-46.3
242.965	-37.84
243.341	-29.38
243.716	-23.04
244.091	-18.12
244.467	-16.17
244.842	-15.15
245.217	-14.41
245.592	-13.17
245.967	-11.97
246.343	-12.95
246.718	-14.28
247.093	-14.39
247.468	-15.04
247.843	-15.22
248.218	-14.44
248.593	-14.94
248.967	-15
249.342	-14.51
249.717	-14.69
250.092	-14.67
250.467	-14.76
250.841	-15.77
251.216	-17.79
251.591	-20.18
251.965	-22.42
252.34	-25.54
252.714	-28.59
253.089	-31.2
253.463	-33.04
253.838	-33.28
254.212	-30.57
254.587	-28.02
254.961	-26.06
255.335	-23.41
255.71	-21.31
256.084	-18.37
256.458	-15.07
256.832	-12.88
257.206	-11.93
257.581	-11.58
257.955	-11.53
258.329	-10.93
258.703	-10.32
259.077	-9.46
259.451	-8.94
259.825	-8.66
260.199	-8.5
260.572	-8.09
260.946	-8.12
261.32	-7.67
261.694	-7.13
262.068	-6.91
262.441	-6.49
262.815	-6.09
263.189	-5.86
263.562	-5.44
263.936	-5.93
264.309	-6.61
264.683	-7.45
265.056	-8.09
265.43	-7.88
265.803	-7.94
266.176	-8.75
266.55	-8.64
266.923	-8.61
267.296	-8.36
267.67	-8.21
268.043	-8.2
268.416	-7.66
268.789	-7.06
269.162	-6.99
269.535	-6.52
269.908	-6.42
270.281	-6.36
270.654	-6.27
271.027	-6.52
271.4	-6.91
271.773	-6.52
272.146	-6.44
272.519	-6.66
272.891	-6.55
273.264	-6.06
273.637	-5.13
274.01	-4.39
274.382	-4.57
274.755	-5.39
275.127	-5.88
275.5	-5.8
275.872	-5.03
276.245	-4.68
276.617	-4.48
276.99	-4.42
277.362	-4.97
277.734	-4.27
278.107	-4.16
278.479	-4.03
278.851	-3.79
279.223	-3.5
279.596	-3.27
279.968	-2.78
280.34	-1.88
280.712	-1.38
281.084	-1.16
281.456	-1.15
281.828	-1.15
282.2	-0.64
282.572	0.12
282.944	0.35
283.315	0.31
283.687	0.15
284.059	0.02
284.431	-0.05
284.802	0.15
285.174	0.24
285.546	-0.05
285.917	-0.23
286.289	-0.43
286.66	-0.38
287.032	-0.48
287.403	-0.69
287.775	-0.98
288.146	-1.05
288.518	-1.21
288.889	-1.65
289.26	-1.96
289.632	-1.93
290.003	-2.06
290.374	-2.37
290.745	-2.31
291.116	-2.26
291.487	-2.43
291.858	-2.52
292.229	-2.24
292.6	-2.18
292.971	-2.06
293.342	-2.14
293.713	-1.87
294.084	-1.4
294.455	-1.11
294.826	-0.64
295.196	-0.45
295.567	-0.4
295.938	-0.41
296.308	-0.28
296.679	0.03
297.05	0.11
297.42	0.03
297.791	0.05
298.161	0.06
298.532	-0.07
298.902	-0.07
299.272	0.13
299.643	0.31
300.013	0.28
300.383	0.32
300.754	0.53
301.124	0.71
301.494	0.79
301.864	0.71
302.234	0.63
302.604	0.44
302.974	0.47
303.344	0.61
303.714	0.6
304.084	0.69
304.454	0.75
304.824	1.02
305.194	1.41
305.563	1.64
305.933	2.04
306.303	2.2
306.673	2.35
307.042	2.55
307.412	2.58
307.781	2.84
308.151	3.11
308.521	3.18
308.89	3.38
309.259	3.39
309.629	3.45
309.998	3.47
310.368	3.45
310.737	3.52
311.106	3.58
311.475	3.61
311.845	3.61
312.214	3.73
312.583	3.75
312.952	3.51
313.321	3.18
313.69	3.14
314.059	3.36
314.428	3.46
314.797	3.39
315.166	3.4
315.535	3.3
315.904	3.16
316.272	3.36
316.641	3.4
317.01	3.68
317.379	3.8
317.747	4.03
318.116	4.3
318.484	4.4
318.853	4.33
319.221	4.36
319.59	4.54
319.958	4.48
320.327	4.4
320.695	4.52
321.063	5.03
321.432	5
321.8	4.99
322.168	5.05
322.536	5.25
322.905	5.32
323.273	5.18
323.641	5.09
324.009	4.88
324.377	4.69
324.745	4.63
325.113	4.66
325.481	4.57
325.849	4.56
326.216	4.54
326.584	4.6
326.952	4.59
327.32	4.63
327.687	4.76
328.055	4.86
328.423	4.93
328.79	4.79
329.158	4.82
329.525	4.89
329.893	4.91
330.26	4.88
330.628	4.94
330.995	5.02
331.362	5.17
331.73	5.2
332.097	5.42
332.464	5.33
332.831	5.3
333.199	5.53
333.566	5.66
333.933	5.79
334.3	5.95
334.667	5.98
335.034	5.83
335.401	5.8
335.768	5.84
336.135	5.9
336.502	6.07
336.868	6.18
337.235	6.12
337.602	6.08
337.969	5.98
338.335	5.95
338.702	5.93
339.069	5.9
339.435	5.95
339.802	5.91
340.168	6.03
340.535	6.1
340.901	5.97
341.267	5.83
341.634	5.81
342	5.91
342.366	5.97
342.733	6.08
343.099	6.12
343.465	6.21
343.831	6.19
344.197	6.14
344.563	6.16
344.929	6.25
345.295	6.18
345.661	6.22
346.027	6.34
346.393	6.42
346.759	6.46
347.125	6.45
347.491	6.51
347.856	6.52
348.222	6.52
348.588	6.56
348.953	6.66
349.319	6.65
349.684	6.53
350.05	6.62
350.415	6.68
350.781	6.72
351.146	6.69
351.512	6.74
351.877	6.8
352.242	6.81
352.608	6.78
352.973	6.91
353.338	6.94
353.703	7
354.068	7.04
354.433	7.07
354.798	7.11
355.164	7.05
355.528	7.1
355.893	7.09
356.258	7.13
356.623	7.18
356.988	7.26
357.353	7.47
357.718	7.54
358.082	7.57
358.447	7.63
358.812	7.63
359.176	7.71
359.541	7.78
359.905	7.82
360.27	7.91
360.634	7.96
360.999	8.04
361.363	8.1
361.728	8.21
362.092	8.32
362.456	8.43
362.821	8.51
363.185	8.53
363.549	8.59
363.913	8.66
364.277	8.67
364.641	8.76
365.005	8.72
365.369	8.78
365.733	8.85
366.097	8.91
366.461	9.02
366.825	8.98
367.189	9
367.553	9.05
367.916	9.16
368.28	9.3
368.644	9.42
369.007	9.43
369.371	9.44
369.734	9.49
370.098	9.55
370.461	9.68
370.825	9.76
371.188	9.88
371.552	9.94
371.915	10
372.278	10.01
372.642	10.07
373.005	10.14
373.368	10.19
373.731	10.26
374.094	10.3
374.457	10.44
374.82	10.53
375.183	10.66
375.546	10.71
375.909	10.76
376.272	10.82
376.635	10.92
376.998	11.01
377.361	11.02
377.723	11.05
378.086	11.04
378.449	11.09
378.811	11.09
379.174	11.13
379.537	11.15
379.899	11.19
380.262	11.24
380.624	11.26
380.987	11.29
381.349	11.31
381.711	11.32
382.074	11.38
382.436	11.37
382.798	11.38
383.16	11.31
383.522	11.29
383.884	11.31
384.247	11.32
384.609	11.35
384.971	11.38
385.333	11.39
385.695	11.45
386.056	11.49
386.418	11.49
386.78	11.49
387.142	11.52
387.504	11.53
387.865	11.49
388.227	11.44
388.589	11.43
388.95	11.44
389.312	11.46
389.673	11.43
390.035	11.4
390.396	11.37
390.758	11.38
391.119	11.37
391.48	11.32
391.842	11.32
392.203	11.28
392.564	11.28
392.925	11.32
393.286	11.3
393.648	11.26
394.009	11.27
394.37	11.31
394.731	11.31
395.092	11.28
395.452	11.32
395.813	11.38
396.174	11.44
396.535	11.45
396.896	11.5
397.257	11.5
397.617	11.55
397.978	11.57
398.338	11.61
398.699	11.63
399.06	11.65
399.42	11.63
399.781	11.64
400.141	11.63
400.501	11.61
400.862	11.63
401.222	11.64
401.582	11.64
401.943	11.61
402.303	11.62
402.663	11.69
403.023	11.64
403.383	11.64
403.743	11.61
404.103	11.61
404.463	11.59
404.823	11.61
405.183	11.61
405.543	11.61
405.903	11.62
406.262	11.62
406.622	11.61
406.982	11.62
407.342	11.59
407.701	11.59
408.061	11.58
408.42	11.57
408.78	11.58
409.139	11.57
409.499	11.56
409.858	11.55
410.217	11.52
410.577	11.53
410.936	11.52
411.295	11.48
411.655	11.43
412.014	11.42
412.373	11.38
412.732	11.35
413.091	11.33
413.45	11.26
413.809	11.2
414.168	11.15
414.527	11.09
414.886	11.08
415.245	11.02
415.603	10.99
415.962	10.93
416.321	10.88
416.679	10.84
417.038	10.8
417.397	10.74
417.755	10.67
418.114	10.64
418.472	10.59
418.831	10.56
419.189	10.54
419.547	10.5
419.906	10.47
420.264	10.43
420.622	10.4
420.981	10.37
421.339	10.34
421.697	10.32
422.055	10.32
422.413	10.31
422.771	10.3
423.129	10.3
423.487	10.32
423.845	10.32
424.203	10.32
424.56	10.32
424.918	10.33
425.276	10.35
425.634	10.35
425.991	10.38
426.349	10.4
426.707	10.41
427.064	10.42
427.422	10.43
427.779	10.47
428.137	10.5
428.494	10.53
428.851	10.58
429.209	10.6
429.566	10.6
429.923	10.57
430.28	10.55
430.637	10.51
430.995	10.47
431.352	10.46
431.709	10.45
432.066	10.46
432.423	10.46
432.78	10.47
433.137	10.48
433.493	10.46
433.85	10.44
434.207	10.39
434.564	10.39
434.92	10.38
435.277	10.36
435.634	10.33
435.99	10.29
436.347	10.25
436.703	10.21
437.06	10.18
437.416	10.17
437.773	10.17
438.129	10.16
438.485	10.16
438.841	10.14
439.198	10.12
439.554	10.08
439.91	10.09
440.266	10.06
440.622	10.03
440.978	10.02
441.334	10
441.69	10
442.046	9.97
442.402	9.95
442.758	9.92
443.113	9.9
443.469	9.9
443.825	9.91
444.181	9.91
444.536	9.9
444.892	9.9
445.247	9.9
445.603	9.91
445.958	9.91
446.314	9.94
446.669	9.95
447.025	9.96
447.38	9.96
447.735	9.98
448.09	10
448.446	10.01
448.801	10.02
449.156	10.03
449.511	10.06
449.866	10.08
450.221	10.11
450.576	10.16
450.931	10.2
451.286	10.22
451.641	10.23
451.995	10.29
452.35	10.34
452.705	10.36
453.06	10.36
453.414	10.36
453.769	10.34
454.123	10.34
454.478	10.35
454.832	10.34
455.187	10.32
455.541	10.28
455.896	10.27
456.25	10.24
456.604	10.22
456.958	10.2
457.313	10.19
457.667	10.18
458.021	10.18
458.375	10.18
458.729	10.19
459.083	10.21
459.437	10.2
459.791	10.18
460.145	10.19
460.499	10.19
460.852	10.19
461.206	10.21
461.56	10.23
461.914	10.25
462.267	10.27
462.621	10.29
462.974	10.31
463.328	10.34
463.681	10.37
464.035	10.42
464.388	10.45
464.742	10.48
465.095	10.5
465.448	10.51
465.801	10.52
466.155	10.53
466.508	10.52
466.861	10.52
467.214	10.53
467.567	10.51
467.92	10.53
468.273	10.55
468.626	10.54
468.979	10.53
469.332	10.51
469.684	10.51
470.037	10.52
470.39	10.51
470.743	10.52
471.095	10.54
471.448	10.55
471.8	10.56
472.153	10.58
472.505	10.6
472.858	10.6
473.21	10.59
473.562	10.59
473.915	10.61
474.267	10.63
474.619	10.64
474.971	10.65
475.324	10.65
475.676	10.65
476.028	10.64
476.38	10.64
476.732	10.65
477.084	10.66
477.436	10.65
477.787	10.66
478.139	10.68
478.491	10.69
478.843	10.68
479.195	10.67
479.546	10.65
479.898	10.62
480.249	10.63
480.601	10.66
480.952	10.67
481.304	10.64
481.655	10.64
482.007	10.63
482.358	10.63
482.709	10.63
483.061	10.63
483.412	10.63
483.763	10.63
484.114	10.63
484.465	10.63
484.816	10.63
485.167	10.62
485.518	10.62
485.869	10.62
486.22	10.62
486.571	10.63
486.922	10.65
487.272	10.66
487.623	10.67
487.974	10.67
488.324	10.67
488.675	10.7
489.025	10.72
489.376	10.73
489.726	10.75
490.077	10.76
490.427	10.78
490.778	10.8
491.128	10.83
491.478	10.87
491.828	10.91
492.179	10.97
492.529	11.01
492.879	11.03
493.229	11.05
493.579	11.08
493.929	11.09
494.279	11.09
494.629	11.11
494.979	11.13
495.328	11.17
495.678	11.23
496.028	11.28
496.378	11.32
496.727	11.37
497.077	11.39
497.426	11.43
497.776	11.44
498.125	11.46
498.475	11.48
498.824	11.47
499.174	11.48
499.523	11.47
499.872	11.49
500.221	11.52
500.571	11.54
500.92	11.55
501.269	11.59
501.618	11.64
501.967	11.66
502.316	11.68
502.665	11.71
503.014	11.73
503.363	11.75
503.711	11.76
504.06	11.78
504.409	11.8
504.758	11.81
505.106	11.84
505.455	11.86
505.803	11.87
506.152	11.88
506.5	11.89
506.849	11.91
507.197	11.91
507.546	11.92
507.894	11.94
508.242	11.97
508.59	11.98
508.939	11.97
509.287	11.98
509.635	11.99
509.983	11.99
510.331	12
510.679	12.01
511.027	12.01
511.375	12.03
511.723	12.06
512.07	12.07
512.418	12.08
512.766	12.12
513.114	12.15
513.461	12.17
513.809	12.2
514.156	12.21
514.504	12.23
514.851	12.25
515.199	12.26
515.546	12.27
515.893	12.28
516.241	12.31
516.588	12.32
516.935	12.35
517.282	12.37
517.63	12.38
517.977	12.39
518.324	12.42
518.671	12.44
519.018	12.46
519.365	12.48
519.711	12.49
520.058	12.49
520.405	12.5
520.752	12.53
521.099	12.53
521.445	12.56
521.792	12.59
522.138	12.59
522.485	12.6
522.832	12.63
523.178	12.66
523.524	12.68
523.871	12.69
524.217	12.7
524.563	12.68
524.91	12.69
525.256	12.7
525.602	12.71
525.948	12.73
526.294	12.72
526.64	12.72
526.986	12.72
527.332	12.73
527.678	12.73
528.024	12.73
528.37	12.75
528.716	12.75
529.061	12.76
529.407	12.79
529.753	12.81
530.098	12.83
530.444	12.84
530.789	12.86
531.135	12.88
531.48	12.91
531.826	12.94
532.171	12.97
532.516	13
532.862	13.03
533.207	13.04
533.552	13.07
533.897	13.11
534.242	13.14
534.587	13.17
534.932	13.22
535.277	13.25
535.622	13.27
535.967	13.29
536.312	13.32
536.657	13.36
537.001	13.41
537.346	13.44
537.691	13.49
538.035	13.52
538.38	13.52
538.724	13.54
539.069	13.57
539.413	13.6
539.758	13.62
540.102	13.64
540.446	13.68
540.791	13.7
541.135	13.72
541.479	13.74
541.823	13.76
542.167	13.77
542.512	13.8
542.856	13.82
543.2	13.84
543.543	13.86
543.887	13.87
544.231	13.89
544.575	13.92
544.919	13.94
545.262	13.98
545.606	14.03
545.95	14.07
546.293	14.1
546.637	14.12
546.98	14.15
547.324	14.19
547.667	14.22
548.011	14.27
548.354	14.28
548.697	14.3
549.04	14.34
549.384	14.35
549.727	14.34
550.07	14.36
550.413	14.39
550.756	14.42
551.099	14.45
551.442	14.46
551.785	14.47
552.128	14.49
552.47	14.51
552.813	14.55
553.156	14.57
553.499	14.58
553.841	14.6
554.184	14.63
554.526	14.63
554.869	14.63
555.211	14.6
555.554	14.61
555.896	14.62
556.238	14.61
556.581	14.62
556.923	14.64
557.265	14.66
557.607	14.66
557.949	14.69
558.291	14.69
558.633	14.69
558.975	14.7
559.317	14.72
559.659	14.7
560.001	14.69
560.343	14.69
560.685	14.7
561.026	14.7
561.368	14.68
561.71	14.71
562.051	14.72
562.393	14.75
562.734	14.74
563.076	14.75
563.417	14.76
563.759	14.79
564.1	14.78
564.441	14.78
564.782	14.79
565.124	14.78
565.465	14.79
565.806	14.79
566.147	14.76
566.488	14.74
566.829	14.76
567.17	14.78
567.511	14.78
567.851	14.79
568.192	14.79
568.533	14.8
568.874	14.79
569.214	14.81
569.555	14.83
569.895	14.84
570.236	14.85
570.576	14.84
570.917	14.82
571.257	14.8
571.598	14.81
571.938	14.8
572.278	14.79
572.618	14.79
572.959	14.82
573.299	14.86
573.639	14.88
573.979	14.89
574.319	14.87
574.659	14.88
574.999	14.86
575.339	14.87
575.678	14.85
576.018	14.85
576.358	14.82
576.698	14.81
577.037	14.83
577.377	14.82
577.716	14.81
578.056	14.83
578.395	14.85
578.735	14.84
579.074	14.82
579.413	14.81
579.753	14.77
580.092	14.73
580.431	14.7
580.77	14.71
581.109	14.69
581.448	14.71
581.787	14.7
582.126	14.7
582.465	14.69
582.804	14.72
583.143	14.74
583.482	14.76
583.82	14.76
584.159	14.77
584.498	14.78
584.836	14.79
585.175	14.77
585.514	14.79
585.852	14.78
586.19	14.8
586.529	14.83
586.867	14.89
587.205	14.92
587.544	14.93
587.882	14.94
588.22	14.96
588.558	14.96
588.896	14.99
589.234	15.01
589.572	15
589.91	15.01
590.248	14.98
590.586	14.96
590.924	14.96
591.262	14.96
591.599	14.94
591.937	14.98
592.275	14.98
592.612	14.96
592.95	14.96
593.287	14.98
593.625	14.97
593.962	14.94
594.299	14.92
594.637	14.93
594.974	14.92
595.311	14.9
595.648	14.91
595.985	14.9
596.322	14.91
596.659	14.93
596.996	14.89
597.333	14.89
597.67	14.9
598.007	14.9
598.344	14.9
598.681	14.92
599.017	14.87
599.354	14.88
599.691	14.89
600.027	14.88
600.364	14.9
600.7	14.9
601.037	14.91
601.373	14.91
601.71	14.92
602.046	14.93
602.382	14.94
602.718	14.91
603.054	14.9
603.391	14.88
603.727	14.86
604.063	14.86
604.399	14.84
604.735	14.83
605.071	14.84
605.406	14.82
605.742	14.79
606.078	14.78
606.414	14.73
606.749	14.71
607.085	14.7
607.421	14.69
607.756	14.66
608.092	14.61
608.427	14.61
608.762	14.56
609.098	14.5
609.433	14.45
609.768	14.44
610.104	14.39
610.439	14.36
610.774	14.33
611.109	14.31
611.444	14.31
611.779	14.26
612.114	14.21
612.449	14.15
612.784	14.1
613.118	14.08
613.453	14.08
613.788	14.06
614.123	14.03
614.457	13.99
614.792	13.96
615.126	13.95
615.461	13.89
615.795	13.86
616.13	13.83
616.464	13.8
616.798	13.75
617.132	13.73
617.467	13.67
617.801	13.65
618.135	13.63
618.469	13.62
618.803	13.61
619.137	13.59
619.471	13.61
619.805	13.59
620.139	13.57
620.472	13.48
620.806	13.46
621.14	13.4
621.473	13.33
621.807	13.3
622.141	13.26
622.474	13.2
622.808	13.16
623.141	13.17
623.474	13.18
623.808	13.17
624.141	13.15
624.474	13.17
624.807	13.15
625.141	13.15
625.474	13.13
625.807	13.12
626.14	13.1
626.473	13.07
626.806	13.04
627.138	13.01
627.471	13.02
627.804	12.97
628.137	12.98
628.469	12.94
628.802	12.91
629.135	12.87
629.467	12.89
629.8	12.85
630.132	12.77
630.465	12.71
630.797	12.67
631.129	12.61
631.461	12.57
631.794	12.54
632.126	12.47
632.458	12.4
632.79	12.34
633.122	12.29
633.454	12.24
633.786	12.19
634.118	12.15
634.45	12.1
634.781	12.07
635.113	12.02
635.445	11.99
635.777	11.97
636.108	11.96
636.44	11.9
636.771	11.87
637.103	11.82
637.434	11.79
637.765	11.74
638.097	11.73
638.428	11.65
638.759	11.59
639.09	11.53
639.422	11.47
639.753	11.45
640.084	11.4
640.415	11.35
640.746	11.35
641.077	11.32
641.407	11.25
641.738	11.19
642.069	11.15
642.4	11.09
642.73	11.06
643.061	11.02
643.392	10.99
643.722	10.97
644.053	10.97
644.383	10.92
644.713	10.92
645.044	10.88
645.374	10.85
645.704	10.8
646.034	10.76
646.365	10.77
646.695	10.73
647.025	10.74
647.355	10.72
647.685	10.68
648.015	10.67
648.344	10.69
648.674	10.69
649.004	10.68
649.334	10.68
649.663	10.67
649.993	10.66
650.323	10.67
650.652	10.66
650.982	10.64
651.311	10.66
651.64	10.6
651.97	10.62
652.299	10.64
652.628	10.66
652.958	10.68
653.287	10.67
653.616	10.66
653.945	10.62
654.274	10.59
654.603	10.56
654.932	10.53
655.261	10.46
655.589	10.44
655.918	10.41
656.247	10.38
656.576	10.37
656.904	10.35
657.233	10.29
657.561	10.28
657.89	10.23
658.218	10.2
658.547	10.17
658.875	10.14
659.203	10.11
659.532	10.09
659.86	10.07
660.188	10.04
660.516	10.01
660.844	10
661.172	9.96
661.5	9.91
661.828	9.85
662.156	9.88
662.484	9.86
662.811	9.85
663.139	9.83
663.467	9.75
663.794	9.74
664.122	9.71
664.45	9.66
664.777	9.66
665.104	9.64
665.432	9.6
665.759	9.56
666.086	9.55
666.414	9.53
666.741	9.51
667.068	9.49
667.395	9.5
667.722	9.51
668.049	9.54
668.376	9.59
668.703	9.64
669.03	9.61
669.357	9.59
669.683	9.55
670.01	9.55
670.337	9.58
670.663	9.57
670.99	9.59
671.317	9.6
671.643	9.6
671.969	9.63
672.296	9.65
672.622	9.67
672.948	9.58
673.275	9.56
673.601	9.53
673.927	9.53
674.253	9.51
674.579	9.46
674.905	9.48
675.231	9.45
675.557	9.43
675.883	9.4
676.209	9.41
676.534	9.42
676.86	9.36
677.186	9.31
677.511	9.29
677.837	9.25
678.162	9.25
678.488	9.26
678.813	9.23
679.139	9.2
679.464	9.13
679.789	9.14
680.114	9.13
680.44	9.12
680.765	9.11
681.09	9.09
681.415	9.12
681.74	9.08
682.065	9.04
682.39	9.04
682.714	9.05
683.039	9.03
683.364	9.01
683.689	9.03
684.013	9.03
684.338	9
684.662	9
684.987	8.96
685.311	8.9
685.636	8.88
685.96	8.9
686.284	8.98
686.608	9.05
686.933	9.08
687.257	9.14
687.581	9.16
687.905	9.2
688.229	9.16
688.553	9.18
688.877	9.18
689.201	9.17
689.524	9.19
689.848	9.23
690.172	9.2
690.496	9.23
690.819	9.24
691.143	9.3
691.466	9.33
691.79	9.37
692.113	9.39
692.436	9.39
692.76	9.32
693.083	9.2
693.406	9.19
693.729	9.12
694.053	9.07
694.376	9.02
694.699	8.96
695.022	8.97
695.344	8.97
695.667	9.06
695.99	9.1
696.313	9.11
696.636	9.09
696.958	9.12
697.281	9.11
697.604	9.15
697.926	9.1
698.249	9.09
698.571	9.06
698.893	9.07
699.216	9.05
699.538	9.09
699.86	9.16
700.182	9.17
700.504	9.22
700.827	9.23
701.149	9.34
701.471	9.4
701.793	9.46
702.114	9.45
702.436	9.36
702.758	9.3
703.08	9.25
703.401	9.24
703.723	9.28
704.045	9.3
704.366	9.26
704.688	9.34
705.009	9.36
705.331	9.34
705.652	9.31
705.973	9.35
706.294	9.3
706.616	9.31
706.937	9.32
707.258	9.32
707.579	9.34
707.9	9.29
708.221	9.26
708.542	9.27
708.863	9.31
709.183	9.39
709.504	9.41
709.825	9.41
710.145	9.44
710.466	9.44
710.787	9.46
711.107	9.42
711.427	9.39
711.748	9.34
712.068	9.38
712.388	9.42
712.709	9.43
713.029	9.51
713.349	9.56
713.669	9.57
713.989	9.59
714.309	9.57
714.629	9.5
714.949	9.51
715.269	9.49
715.589	9.56
715.908	9.58
716.228	9.66
716.548	9.71
716.867	9.71
717.187	9.74
717.506	9.78
717.826	9.91
718.145	10
718.465	10.04
718.784	10.07
719.103	10.21
719.422	10.3
719.741	10.37
720.061	10.38
720.38	10.41
720.699	10.48
721.018	10.62
721.336	10.79
721.655	10.9
721.974	11.02
722.293	11.05
722.612	11.2
722.93	11.36
723.249	11.49
723.567	11.65
723.886	11.73
724.204	11.76
724.523	11.83
724.841	11.87
725.159	11.99
725.477	12.12
725.796	12.14
726.114	12.19
726.432	12.17
726.75	12.26
727.068	12.36
727.386	12.42
727.704	12.5
728.022	12.59
728.339	12.66
728.657	12.72
728.975	12.76
729.292	12.74
729.61	12.73
729.928	12.75
730.245	12.73
730.562	12.75
730.88	12.9
731.197	12.88
731.514	12.94
731.832	13.03
732.149	13.03
732.466	13.11
732.783	13.23
733.1	13.44
733.417	13.49
733.734	13.59
734.051	13.65
734.368	13.64
734.684	13.68
735.001	13.75
735.318	13.86
735.634	13.97
735.951	14.12
736.268	14.2
736.584	14.33
736.9	14.48
737.217	14.56
737.533	14.6
737.849	14.79
738.166	14.84
738.482	14.82
738.798	14.91
739.114	15
739.43	15.01
739.746	14.97
740.062	15.1
740.378	15.15
740.693	15.23
741.009	15.28
741.325	15.23
741.641	15.28
741.956	15.41
742.272	15.5
742.587	15.52
742.903	15.55
743.218	15.59
743.533	15.59
743.849	15.79
744.164	15.94
744.479	15.95
744.794	16.08
745.109	16.31
745.424	16.43
745.739	16.51
746.054	16.63
746.369	16.71
746.684	16.7
746.999	16.74
747.313	16.82
747.628	16.93
747.943	17.07
748.257	17.1
748.572	17.04
748.886	16.9
749.201	16.96
749.515	16.98
749.829	17.02
750.144	17.07
750.458	17.11
750.772	17.03
751.086	17.02
751.4	17.01
751.714	16.87
752.028	16.91
752.342	16.91
752.656	16.91
752.97	16.92
753.284	17.04
753.597	17.09
753.911	17.2
754.225	17.26
754.538	17.34
754.852	17.44
755.165	17.49
755.478	17.61
755.792	17.6
756.105	17.62
756.418	17.66
756.731	17.71
757.045	17.67
757.358	17.79
757.671	17.91
757.984	18.02
758.297	18.11
758.609	18.19
758.922	18.24
759.235	18.34
759.548	18.33
759.86	18.27
760.173	18.16
760.486	17.95
760.798	17.86
761.111	17.8
761.423	17.64
761.735	17.59
762.048	17.6
762.36	17.66
762.672	17.69
762.984	17.73
763.296	17.78
763.608	17.74
763.92	17.78
764.232	17.8
764.544	17.83
764.856	17.87
765.168	17.9
765.48	17.93
765.791	17.99
766.103	18.2
766.414	18.37
766.726	18.59
767.037	18.95
767.349	19.27
767.66	19.56
767.972	20.07
768.283	20.39
768.594	20.69
768.905	20.96
769.216	21.18
769.527	21.3
769.838	21.45
770.149	21.84
770.46	22.05
770.771	22.33
771.082	22.48
771.393	22.71
771.703	22.88
772.014	22.97
772.324	23
772.635	22.99
772.945	23.16
773.256	23.32
773.566	23.23
773.877	23.15
774.187	23.15
774.497	23.06
774.807	23.14
775.117	23.42
775.427	23.55
775.737	23.84
776.047	24.15
776.357	24.1
776.667	23.96
776.977	23.91
777.287	23.87
777.596	23.97
777.906	24.1
778.216	24.26
778.525	24.42
778.835	24.64
779.144	23.66
779.453	23.37
779.763	23.48
780.072	23.71
780.381	23.99
780.69	24.22
781	24.22
781.309	24.13
781.618	24.01
781.927	24.03
782.235	24.29
782.544	24.35
782.853	24.72
783.162	24.87
783.471	25.03
783.779	25.18
784.088	25.29
784.396	25.34
784.705	25.29
785.013	25.27
785.322	25.16
785.63	26.18
785.938	26.3
786.246	26.18
786.554	26.04
786.863	25.76
787.171	25.75
787.479	26.01
787.787	26.09
788.094	26.25
788.402	26.37
788.71	26.22
789.018	26.17
789.326	26.27
789.633	26.44
789.941	26.45
790.248	26.4
790.556	26.4
790.863	26.54
791.171	26.77
791.478	26.65
791.785	26.88
792.092	27.17
792.399	27.57
792.707	27.76
793.014	27.79
793.321	27.88
793.628	27.92
793.934	27.91
794.241	28.06
794.548	27.81
794.855	27.46
795.161	27.28
795.468	27.25
795.775	27.12
796.081	27.17
796.388	27.07
796.694	27.16
797	27.19
797.307	27.06
797.613	26.71
797.919	26.96
798.225	26.89
798.531	26.85
798.837	26.78
799.143	26.75
799.449	26.87
799.755	26.99
800.061	27.05
800.367	27.2
800.672	27.5
800.978	27.89
801.284	28.23
801.589	28.3
801.895	28.43
802.2	28.62
802.506	28.51
802.811	28.74
803.116	28.67
803.421	28.7
803.727	29
804.032	29.33
804.337	29.39
804.642	29.46
804.947	29.65
805.252	29.62
805.556	29.86
805.861	30.06
806.166	30.42
806.471	30.66
806.775	30.55
807.08	30.57
807.384	30.42
807.689	30.62
807.993	30.94
808.298	31.21
808.602	31.19
808.906	31.47
809.211	31.82
809.515	32.07
809.819	32.35
810.123	32.52
810.427	32.68
810.731	32.66
811.035	32.61
811.338	32.28
811.642	32.17
811.946	32.1
812.25	32.13
812.553	32.18
812.857	31.96
813.16	31.97
813.464	31.85
813.767	32.25
814.07	32.46
814.374	32.55
814.677	32.5
814.98	32.51
815.283	32.53
815.586	32.22
815.889	32.4
816.192	32.13
816.495	31.65
816.798	31.24
817.101	31.34
817.404	31.08
817.706	31.08
818.009	30.81
818.312	30.19
818.614	29.31
818.917	27.98
819.219	26.36
819.521	24.74
819.824	22.95
820.126	21.54
820.428	20.56
820.73	19.83
821.032	19.3
821.334	19
821.636	18.7
821.938	18.54
822.24	18.35
822.542	18.32
822.844	18.31
823.145	18.28
823.447	18.24
823.749	18.2
824.05	18.13
824.352	18.07
824.653	18.01
824.955	17.89
825.256	17.9
825.557	17.94
825.858	18.08
826.16	18.37
826.461	18.76
826.762	19.18
827.063	19.56
827.364	19.96
827.665	20.32
827.965	20.81
828.266	21.22
828.567	21.55
828.868	21.8
829.168	22.02
829.469	22.42
829.769	22.6
830.07	22.82
830.37	23
830.67	23.27
830.971	23.72
831.271	24.43
831.571	24.88
831.871	25.4
832.171	25.87
832.471	26.13
832.771	26.02
833.071	26.05
833.371	26.22
833.671	26.29
833.971	26.32
834.27	26.37
834.57	26.51
834.869	26.74
835.169	26.78
835.468	27.07
835.768	27.01
836.067	26.92
836.367	27.28
836.666	27.69
836.965	28.06
837.264	28.56
837.563	28.99
837.862	29.66
838.161	30.38
838.46	31.07
838.759	31.91
839.058	33.04
839.356	33.66
839.655	34.39
839.954	35.34
840.252	36.16
840.551	36.52
840.849	36.68
841.148	36.88
841.446	37.55
841.744	37.43
842.043	37.48
842.341	38.06
842.639	38.37
842.937	38.64
843.235	39.39
843.533	40.03
843.831	40.65
844.129	41.27
844.427	42.26
844.724	42.83
845.022	43.78
845.32	44.25
845.617	45.14
845.915	45.97
846.212	46.69
846.51	47.14
846.807	47.59
847.104	47.71
847.402	48.3
847.699	48.15
847.996	48.72
848.293	49.21
848.59	49.42
848.887	50.28
849.184	50.57
849.481	51.11
849.778	51.11
850.074	51.17
850.371	51.13
850.668	51.69
850.964	52.36
851.261	52.71
851.557	53.46
851.854	53.49
852.15	53.91
852.446	53.88
852.743	54.29
853.039	54.22
853.335	54.88
853.631	55.44
853.927	56.91
854.223	56.51
854.519	55.76
854.815	56.06
855.111	55.24
855.406	54.43
855.702	53.03
855.998	52.62
856.293	53.14
856.589	54.28
856.884	54.58
857.18	54.57
857.475	54.34
857.77	54.13
858.066	54.06
858.361	53.97
858.656	53.87
858.951	53.14
859.246	53.52
859.541	53.74
859.836	53.41
860.131	52.02
860.426	52.65
860.72	54.05
861.015	54.2
861.31	54.59
861.604	56.29
861.899	57.43
862.193	57.83
862.487	58.05
862.782	57.65
863.076	56.33
863.37	56.34
863.664	56.62
863.959	56.61
864.253	56.08
864.547	56.09
864.841	56.7
865.135	57.26
865.428	57.13
865.722	57.32
866.016	56.97
866.31	57.61
866.603	58.14
866.897	57.82
867.19	58.38
867.484	58.99
867.777	58.55
868.07	58.21
868.364	57.98
868.657	57.64
868.95	58.11
869.243	59.12
869.536	58.64
869.829	58.99
870.122	59.41
870.415	60.39
870.708	60.22
871	60.23
871.293	60.48
871.586	60.81
871.878	59.9
872.171	60.01
872.463	60.05
872.756	59.82
873.048	59.65
873.341	59.2
873.633	58.38
873.925	58.11
874.217	58.54
874.509	58.92
874.801	59.22
875.093	58.56
875.385	57.98
875.677	58.25
875.969	57.68
