Data from Anodorhynchus_glaucus_45_25_rump_Reflection_2.txt Node
Date: Wed Mar 17 16:35:07 GMT-03:00 2021
User: Darío
Spectrometer: USB2E3644
Trigger mode: 4
Integration Time (sec): 2.480000E-1
Scans to average: 10
Electric dark correction enabled: true
Nonlinearity correction enabled: false
Boxcar width: 10
XAxis mode: Wavelengths
Number of Pixels in Spectrum: 2048
>>>>>Begin Spectral Data<<<<<
178.315	167.59
178.696	143.75
179.076	97.19
179.457	83.45
179.838	75.69
180.218	103.57
180.599	102.07
180.979	130.77
181.36	90.5
181.74	89.51
182.121	70.33
182.501	72.82
182.881	88.34
183.262	102.3
183.642	109.96
184.022	117.88
184.402	126.1
184.783	130.77
185.163	143.44
185.543	144.81
185.923	143.09
186.303	154.06
186.683	161.47
187.063	153.06
187.443	149.02
187.823	143.55
188.203	142.77
188.583	142.55
188.963	139.94
189.343	140.92
189.723	141.48
190.102	141.54
190.482	140.05
190.862	138.49
191.242	134.95
191.621	129.17
192.001	126.09
192.38	124.28
192.76	120.98
193.14	118.25
193.519	118.41
193.898	117.11
194.278	115.15
194.657	113.75
195.037	115.01
195.416	117.24
195.795	118.77
196.175	120.79
196.554	120.03
196.933	120.25
197.312	120.44
197.692	121.74
198.071	123.24
198.45	123.83
198.829	124.89
199.208	125.05
199.587	127.46
199.966	126.51
200.345	124.46
200.724	124.67
201.103	124.86
201.482	125.64
201.86	124.95
202.239	125.02
202.618	122.71
202.997	121.82
203.375	120.88
203.754	122.38
204.133	123.05
204.511	123.47
204.89	123.62
205.269	122.01
205.647	119.86
206.026	120.36
206.404	120.36
206.782	117.56
207.161	116.32
207.539	117.1
207.918	119.73
208.296	122.62
208.674	124.04
209.052	123.22
209.431	122.27
209.809	124.35
210.187	125.4
210.565	131.63
210.943	134.32
211.321	135.6
211.699	134.11
212.077	134.19
212.455	133.57
212.833	133.07
213.211	137.3
213.589	141.65
213.967	145.77
214.345	153.87
214.722	164.67
215.1	173.73
215.478	173.47
215.855	167.96
216.233	166.06
216.611	160.56
216.988	163.24
217.366	163.17
217.743	161.83
218.121	159.6
218.498	149.9
218.876	141.49
219.253	138.53
219.631	135.72
220.008	132.3
220.385	129.18
220.762	130.84
221.14	130.1
221.517	129.4
221.894	129.77
222.271	125.14
222.648	122.26
223.025	117.57
223.402	114.09
223.78	116.44
224.157	114.96
224.533	115.36
224.91	116.08
225.287	118.6
225.664	124.05
226.041	134.89
226.418	147.48
226.795	153
227.171	157.99
227.548	164.13
227.925	166.81
228.301	167.9
228.678	169.08
229.055	165.75
229.431	163.88
229.808	158.03
230.184	155.23
230.561	153.8
230.937	153.14
231.313	158.82
231.69	158.22
232.066	161.95
232.442	163.3
232.819	163.9
233.195	164.25
233.571	157.69
233.947	148.11
234.323	142.21
234.699	142.13
235.075	139.05
235.451	137.11
235.827	139.96
236.203	143.51
236.579	149.24
236.955	158.55
237.331	165.17
237.707	178.15
238.083	197.33
238.459	222.7
238.834	279.27
239.21	323.71
239.586	398.19
239.961	467.92
240.337	552.87
240.713	632.17
241.088	692.37
241.464	804.21
241.839	1079.09
242.215	3931.07
242.59	-1528.14
242.965	-565.36
243.341	-256.47
243.716	-176.77
244.091	-132.74
244.467	-108.85
244.842	-97.09
245.217	-92.29
245.592	-90.2
245.967	-87.16
246.343	-85.14
246.718	-85.9
247.093	-88.31
247.468	-87.73
247.843	-83.96
248.218	-78.74
248.593	-75.34
248.967	-73.69
249.342	-73.36
249.717	-72.83
250.092	-73.88
250.467	-76.03
250.841	-80.49
251.216	-93.7
251.591	-105.77
251.965	-119.3
252.34	-133.99
252.714	-147.92
253.089	-152.89
253.463	-154.53
253.838	-153.71
254.212	-142.76
254.587	-127.44
254.961	-113.71
255.335	-98.11
255.71	-84.01
256.084	-65.5
256.458	-54.53
256.832	-46.52
257.206	-39.75
257.581	-37.15
257.955	-34.99
258.329	-33.07
258.703	-30.38
259.077	-28.77
259.451	-27.21
259.825	-25.79
260.199	-24.82
260.572	-24.04
260.946	-24.03
261.32	-23.73
261.694	-23.74
262.068	-24.03
262.441	-24.41
262.815	-23.76
263.189	-22.97
263.562	-22.64
263.936	-25.05
264.309	-26.11
264.683	-26.81
265.056	-28.92
265.43	-28.96
265.803	-29.09
266.176	-29.59
266.55	-29.77
266.923	-29.12
267.296	-28.06
267.67	-27.86
268.043	-26.5
268.416	-25.35
268.789	-23.63
269.162	-21.13
269.535	-19.05
269.908	-17.77
270.281	-17.58
270.654	-16.94
271.027	-17.16
271.4	-17.72
271.773	-17.49
272.146	-17.24
272.519	-17.43
272.891	-16.88
273.264	-15.88
273.637	-15.1
274.01	-14.67
274.382	-14.32
274.755	-14.09
275.127	-14.12
275.5	-14.19
275.872	-14.83
276.245	-14.94
276.617	-14.77
276.99	-15.72
277.362	-16.1
277.734	-16.35
278.107	-16.12
278.479	-16.5
278.851	-16.52
279.223	-15.55
279.596	-14.4
279.968	-14.29
280.34	-13.8
280.712	-13.14
281.084	-12.87
281.456	-12.47
281.828	-11.9
282.2	-11.09
282.572	-10.34
282.944	-9.9
283.315	-9.58
283.687	-9.37
284.059	-9.08
284.431	-9.05
284.802	-8.85
285.174	-8.81
285.546	-8.46
285.917	-7.99
286.289	-7.92
286.66	-7.64
287.032	-7.56
287.403	-7.64
287.775	-7.57
288.146	-7.91
288.518	-8.63
288.889	-9.01
289.26	-9.21
289.632	-9.61
290.003	-10.29
290.374	-11.05
290.745	-11.42
291.116	-11.47
291.487	-11.29
291.858	-11.2
292.229	-10.93
292.6	-10.37
292.971	-9.68
293.342	-9.36
293.713	-9.09
294.084	-8.71
294.455	-8.7
294.826	-8.95
295.196	-9.07
295.567	-8.91
295.938	-8.68
296.308	-8.28
296.679	-7.95
297.05	-7.96
297.42	-7.62
297.791	-7.29
298.161	-7.02
298.532	-6.78
298.902	-6.66
299.272	-6.83
299.643	-7.06
300.013	-7.44
300.383	-7.78
300.754	-8.24
301.124	-8.36
301.494	-8.73
301.864	-8.95
302.234	-8.94
302.604	-8.47
302.974	-8.04
303.344	-8.13
303.714	-8.23
304.084	-8.25
304.454	-8.27
304.824	-8.33
305.194	-8.22
305.563	-8.21
305.933	-8.15
306.303	-7.83
306.673	-7.86
307.042	-7.06
307.412	-6.44
307.781	-5.82
308.151	-5.42
308.521	-5.09
308.89	-5.08
309.259	-4.84
309.629	-4.69
309.998	-4.52
310.368	-4.56
310.737	-4.57
311.106	-4.31
311.475	-3.85
311.845	-3.7
312.214	-3.65
312.583	-3.39
312.952	-3.26
313.321	-3.06
313.69	-2.82
314.059	-2.85
314.428	-2.58
314.797	-2.74
315.166	-2.69
315.535	-2.56
315.904	-2.5
316.272	-2.48
316.641	-2.49
317.01	-2.52
317.379	-2.29
317.747	-2.12
318.116	-1.87
318.484	-1.74
318.853	-1.65
319.221	-1.45
319.59	-1.13
319.958	-0.95
320.327	-0.69
320.695	-0.37
321.063	-0.33
321.432	-0.31
321.8	-0.32
322.168	-0.29
322.536	-0.28
322.905	-0.21
323.273	-0.11
323.641	0.03
324.009	0.16
324.377	0.24
324.745	0.28
325.113	0.1
325.481	0.06
325.849	0.17
326.216	0.15
326.584	0.24
326.952	0.27
327.32	0.27
327.687	0.33
328.055	0.33
328.423	0.27
328.79	0.34
329.158	0.53
329.525	0.72
329.893	0.78
330.26	0.74
330.628	0.78
330.995	0.76
331.362	0.67
331.73	0.72
332.097	0.9
332.464	1.02
332.831	1.34
333.199	1.76
333.566	1.99
333.933	2.08
334.3	2.23
334.667	2.26
335.034	2.4
335.401	2.57
335.768	2.58
336.135	2.63
336.502	2.76
336.868	2.88
337.235	3.13
337.602	3.32
337.969	3.63
338.335	3.69
338.702	3.78
339.069	3.87
339.435	3.93
339.802	4.07
340.168	4.21
340.535	4.2
340.901	4.12
341.267	4.05
341.634	4.1
342	4.01
342.366	4.04
342.733	4
343.099	4.01
343.465	4.16
343.831	4.32
344.197	4.45
344.563	4.37
344.929	4.17
345.295	4.15
345.661	4.2
346.027	4.32
346.393	4.42
346.759	4.53
347.125	4.6
347.491	4.65
347.856	4.67
348.222	4.73
348.588	4.76
348.953	4.84
349.319	4.89
349.684	5.05
350.05	5.15
350.415	5.34
350.781	5.43
351.146	5.41
351.512	5.32
351.877	5.27
352.242	5.37
352.608	5.53
352.973	5.7
353.338	5.72
353.703	5.74
354.068	5.67
354.433	5.66
354.798	5.76
355.164	5.81
355.528	5.93
355.893	5.94
356.258	5.9
356.623	5.9
356.988	5.93
357.353	5.87
357.718	5.78
358.082	5.64
358.447	5.58
358.812	5.59
359.176	5.74
359.541	5.79
359.905	5.81
360.27	5.79
360.634	5.76
360.999	5.79
361.363	5.75
361.728	5.89
362.092	5.99
362.456	5.94
362.821	5.97
363.185	6.01
363.549	6.15
363.913	6.21
364.277	6.3
364.641	6.36
365.005	6.44
365.369	6.59
365.733	6.72
366.097	6.86
366.461	6.94
366.825	6.92
367.189	6.98
367.553	7.1
367.916	7.27
368.28	7.32
368.644	7.41
369.007	7.57
369.371	7.61
369.734	7.64
370.098	7.75
370.461	7.84
370.825	7.86
371.188	7.89
371.552	7.99
371.915	8.06
372.278	8.16
372.642	8.22
373.005	8.23
373.368	8.22
373.731	8.26
374.094	8.31
374.457	8.43
374.82	8.53
375.183	8.56
375.546	8.55
375.909	8.66
376.272	8.71
376.635	8.71
376.998	8.75
377.361	8.88
377.723	8.95
378.086	8.98
378.449	9.03
378.811	9.11
379.174	9.13
379.537	9.11
379.899	9.15
380.262	9.24
380.624	9.35
380.987	9.48
381.349	9.53
381.711	9.6
382.074	9.61
382.436	9.62
382.798	9.83
383.16	9.8
383.522	9.75
383.884	9.76
384.247	9.81
384.609	9.86
384.971	9.86
385.333	9.88
385.695	9.89
386.056	9.94
386.418	9.97
386.78	10.08
387.142	10.06
387.504	10.02
387.865	10
388.227	9.98
388.589	10
388.95	10.04
389.312	10.02
389.673	10.07
390.035	10.05
390.396	9.94
390.758	10.01
391.119	10.04
391.48	10.02
391.842	10.01
392.203	9.99
392.564	10.01
392.925	9.99
393.286	9.96
393.648	9.96
394.009	9.95
394.37	9.9
394.731	9.94
395.092	9.97
395.452	9.97
395.813	10
396.174	9.99
396.535	9.97
396.896	9.98
397.257	9.98
397.617	10.04
397.978	10.09
398.338	10.09
398.699	10.1
399.06	10.18
399.42	10.14
399.781	10.19
400.141	10.18
400.501	10.23
400.862	10.28
401.222	10.27
401.582	10.3
401.943	10.3
402.303	10.32
402.663	10.36
403.023	10.39
403.383	10.38
403.743	10.38
404.103	10.42
404.463	10.46
404.823	10.47
405.183	10.45
405.543	10.44
405.903	10.45
406.262	10.45
406.622	10.39
406.982	10.46
407.342	10.47
407.701	10.45
408.061	10.41
408.42	10.42
408.78	10.43
409.139	10.41
409.499	10.41
409.858	10.42
410.217	10.46
410.577	10.44
410.936	10.48
411.295	10.49
411.655	10.44
412.014	10.43
412.373	10.45
412.732	10.44
413.091	10.42
413.45	10.42
413.809	10.42
414.168	10.4
414.527	10.34
414.886	10.3
415.245	10.26
415.603	10.27
415.962	10.21
416.321	10.18
416.679	10.16
417.038	10.13
417.397	10.1
417.755	10.04
418.114	10.04
418.472	10.01
418.831	10.01
419.189	10
419.547	9.98
419.906	9.95
420.264	9.93
420.622	9.92
420.981	9.91
421.339	9.9
421.697	9.91
422.055	9.93
422.413	9.95
422.771	9.98
423.129	9.98
423.487	10.02
423.845	10.05
424.203	10.09
424.56	10.14
424.918	10.17
425.276	10.22
425.634	10.24
425.991	10.3
426.349	10.33
426.707	10.38
427.064	10.4
427.422	10.45
427.779	10.51
428.137	10.55
428.494	10.61
428.851	10.66
429.209	10.69
429.566	10.72
429.923	10.73
430.28	10.74
430.637	10.78
430.995	10.77
431.352	10.76
431.709	10.75
432.066	10.74
432.423	10.75
432.78	10.77
433.137	10.79
433.493	10.77
433.85	10.83
434.207	10.8
434.564	10.81
434.92	10.81
435.277	10.84
435.634	10.86
435.99	10.85
436.347	10.87
436.703	10.91
437.06	10.9
437.416	10.92
437.773	10.9
438.129	10.87
438.485	10.93
438.841	10.92
439.198	10.95
439.554	10.95
439.91	10.97
440.266	10.95
440.622	10.97
440.978	10.96
441.334	10.92
441.69	10.94
442.046	10.95
442.402	10.94
442.758	10.94
443.113	10.91
443.469	10.92
443.825	10.93
444.181	10.92
444.536	10.95
444.892	10.97
445.247	11.01
445.603	11.04
445.958	11.05
446.314	11.09
446.669	11.09
447.025	11.11
447.38	11.13
447.735	11.15
448.09	11.17
448.446	11.2
448.801	11.24
449.156	11.28
449.511	11.3
449.866	11.37
450.221	11.43
450.576	11.51
450.931	11.6
451.286	11.66
451.641	11.7
451.995	11.75
452.35	11.83
452.705	11.84
453.06	11.87
453.414	11.89
453.769	11.89
454.123	11.91
454.478	11.94
454.832	11.96
455.187	11.97
455.541	11.99
455.896	11.98
456.25	11.96
456.604	11.96
456.958	11.97
457.313	11.97
457.667	11.96
458.021	11.98
458.375	12
458.729	12.01
459.083	12.04
459.437	12.07
459.791	12.05
460.145	12.09
460.499	12.1
460.852	12.12
461.206	12.17
461.56	12.19
461.914	12.2
462.267	12.21
462.621	12.25
462.974	12.28
463.328	12.35
463.681	12.41
464.035	12.48
464.388	12.55
464.742	12.59
465.095	12.65
465.448	12.68
465.801	12.67
466.155	12.71
466.508	12.75
466.861	12.77
467.214	12.8
467.567	12.82
467.92	12.85
468.273	12.86
468.626	12.87
468.979	12.91
469.332	12.96
469.684	12.97
470.037	13.03
470.39	13.04
470.743	13.08
471.095	13.1
471.448	13.15
471.8	13.17
472.153	13.21
472.505	13.23
472.858	13.25
473.21	13.31
473.562	13.32
473.915	13.35
474.267	13.36
474.619	13.39
474.971	13.41
475.324	13.45
475.676	13.5
476.028	13.5
476.38	13.51
476.732	13.51
477.084	13.52
477.436	13.52
477.787	13.54
478.139	13.59
478.491	13.63
478.843	13.64
479.195	13.68
479.546	13.66
479.898	13.67
480.249	13.66
480.601	13.66
480.952	13.67
481.304	13.66
481.655	13.68
482.007	13.69
482.358	13.7
482.709	13.71
483.061	13.71
483.412	13.72
483.763	13.74
484.114	13.77
484.465	13.79
484.816	13.8
485.167	13.8
485.518	13.8
485.869	13.81
486.22	13.82
486.571	13.83
486.922	13.87
487.272	13.89
487.623	13.92
487.974	13.97
488.324	14
488.675	14.05
489.025	14.07
489.376	14.1
489.726	14.15
490.077	14.18
490.427	14.21
490.778	14.24
491.128	14.27
491.478	14.3
491.828	14.36
492.179	14.4
492.529	14.45
492.879	14.5
493.229	14.52
493.579	14.55
493.929	14.57
494.279	14.59
494.629	14.62
494.979	14.67
495.328	14.7
495.678	14.75
496.028	14.82
496.378	14.86
496.727	14.9
497.077	14.91
497.426	14.96
497.776	14.97
498.125	15
498.475	15.02
498.824	15.05
499.174	15.05
499.523	15.08
499.872	15.1
500.221	15.13
500.571	15.17
500.92	15.18
501.269	15.22
501.618	15.24
501.967	15.25
502.316	15.28
502.665	15.34
503.014	15.4
503.363	15.43
503.711	15.46
504.06	15.48
504.409	15.49
504.758	15.47
505.106	15.5
505.455	15.55
505.803	15.56
506.152	15.57
506.5	15.57
506.849	15.57
507.197	15.58
507.546	15.59
507.894	15.6
508.242	15.63
508.59	15.62
508.939	15.63
509.287	15.65
509.635	15.67
509.983	15.66
510.331	15.66
510.679	15.66
511.027	15.66
511.375	15.69
511.723	15.69
512.07	15.72
512.418	15.74
512.766	15.75
513.114	15.78
513.461	15.79
513.809	15.81
514.156	15.83
514.504	15.84
514.851	15.85
515.199	15.85
515.546	15.87
515.893	15.89
516.241	15.91
516.588	15.92
516.935	15.93
517.282	15.94
517.63	15.95
517.977	15.99
518.324	16.03
518.671	16.04
519.018	16.09
519.365	16.09
519.711	16.1
520.058	16.11
520.405	16.09
520.752	16.08
521.099	16.12
521.445	16.16
521.792	16.16
522.138	16.17
522.485	16.19
522.832	16.19
523.178	16.18
523.524	16.17
523.871	16.18
524.217	16.16
524.563	16.11
524.91	16.07
525.256	15.98
525.602	15.92
525.948	15.9
526.294	15.88
526.64	15.85
526.986	15.82
527.332	15.8
527.678	15.8
528.024	15.8
528.37	15.8
528.716	15.76
529.061	15.75
529.407	15.73
529.753	15.7
530.098	15.67
530.444	15.67
530.789	15.66
531.135	15.64
531.48	15.63
531.826	15.64
532.171	15.64
532.516	15.65
532.862	15.64
533.207	15.6
533.552	15.57
533.897	15.56
534.242	15.55
534.587	15.54
534.932	15.55
535.277	15.52
535.622	15.51
535.967	15.52
536.312	15.51
536.657	15.52
537.001	15.53
537.346	15.49
537.691	15.45
538.035	15.4
538.38	15.36
538.724	15.33
539.069	15.29
539.413	15.27
539.758	15.24
540.102	15.24
540.446	15.23
540.791	15.23
541.135	15.23
541.479	15.21
541.823	15.2
542.167	15.16
542.512	15.17
542.856	15.11
543.2	15.08
543.543	15.05
543.887	15.03
544.231	15.03
544.575	15.03
544.919	15.01
545.262	15
545.606	15
545.95	15
546.293	15.01
546.637	14.98
546.98	14.99
547.324	14.95
547.667	14.99
548.011	14.94
548.354	14.92
548.697	14.89
549.04	14.87
549.384	14.84
549.727	14.76
550.07	14.75
550.413	14.72
550.756	14.69
551.099	14.64
551.442	14.56
551.785	14.55
552.128	14.52
552.47	14.46
552.813	14.42
553.156	14.36
553.499	14.31
553.841	14.28
554.184	14.22
554.526	14.18
554.869	14.09
555.211	14.06
555.554	14.03
555.896	13.96
556.238	13.88
556.581	13.81
556.923	13.77
557.265	13.72
557.607	13.65
557.949	13.63
558.291	13.56
558.633	13.5
558.975	13.4
559.317	13.33
559.659	13.3
560.001	13.26
560.343	13.19
560.685	13.11
561.026	13.05
561.368	12.98
561.71	12.9
562.051	12.83
562.393	12.82
562.734	12.69
563.076	12.62
563.417	12.58
563.759	12.52
564.1	12.46
564.441	12.46
564.782	12.39
565.124	12.3
565.465	12.24
565.806	12.17
566.147	12.11
566.488	12.07
566.829	11.98
567.17	11.91
567.511	11.85
567.851	11.81
568.192	11.72
568.533	11.65
568.874	11.6
569.214	11.51
569.555	11.38
569.895	11.36
570.236	11.31
570.576	11.24
570.917	11.17
571.257	11.12
571.598	11.03
571.938	10.97
572.278	10.91
572.618	10.87
572.959	10.84
573.299	10.8
573.639	10.73
573.979	10.67
574.319	10.63
574.659	10.61
574.999	10.54
575.339	10.52
575.678	10.47
576.018	10.41
576.358	10.36
576.698	10.36
577.037	10.29
577.377	10.21
577.716	10.17
578.056	10.13
578.395	10.06
578.735	9.98
579.074	9.94
579.413	9.88
579.753	9.82
580.092	9.73
580.431	9.66
580.77	9.65
581.109	9.64
581.448	9.55
581.787	9.48
582.126	9.45
582.465	9.37
582.804	9.31
583.143	9.3
583.482	9.25
583.82	9.19
584.159	9.13
584.498	9.1
584.836	9.04
585.175	8.96
585.514	8.93
585.852	8.88
586.19	8.86
586.529	8.82
586.867	8.76
587.205	8.73
587.544	8.72
587.882	8.66
588.22	8.59
588.558	8.58
588.896	8.55
589.234	8.51
589.572	8.5
589.91	8.47
590.248	8.4
590.586	8.39
590.924	8.35
591.262	8.34
591.599	8.32
591.937	8.29
592.275	8.25
592.612	8.24
592.95	8.22
593.287	8.2
593.625	8.15
593.962	8.14
594.299	8.12
594.637	8.08
594.974	8.06
595.311	8.02
595.648	7.99
595.985	7.95
596.322	7.91
596.659	7.91
596.996	7.89
597.333	7.87
597.67	7.83
598.007	7.81
598.344	7.77
598.681	7.79
599.017	7.73
599.354	7.69
599.691	7.66
600.027	7.66
600.364	7.61
600.7	7.58
601.037	7.54
601.373	7.51
601.71	7.46
602.046	7.47
602.382	7.47
602.718	7.49
603.054	7.49
603.391	7.48
603.727	7.41
604.063	7.41
604.399	7.4
604.735	7.38
605.071	7.34
605.406	7.33
605.742	7.29
606.078	7.3
606.414	7.3
606.749	7.29
607.085	7.24
607.421	7.22
607.756	7.21
608.092	7.19
608.427	7.17
608.762	7.16
609.098	7.11
609.433	7.07
609.768	7.02
610.104	6.97
610.439	6.95
610.774	6.94
611.109	6.87
611.444	6.84
611.779	6.81
612.114	6.8
612.449	6.77
612.784	6.73
613.118	6.7
613.453	6.67
613.788	6.61
614.123	6.6
614.457	6.59
614.792	6.57
615.126	6.53
615.461	6.48
615.795	6.43
616.13	6.39
616.464	6.39
616.798	6.34
617.132	6.3
617.467	6.28
617.801	6.24
618.135	6.28
618.469	6.26
618.803	6.25
619.137	6.25
619.471	6.26
619.805	6.21
620.139	6.21
620.472	6.23
620.806	6.24
621.14	6.21
621.473	6.18
621.807	6.16
622.141	6.15
622.474	6.13
622.808	6.13
623.141	6.14
623.474	6.11
623.808	6.14
624.141	6.17
624.474	6.2
624.807	6.2
625.141	6.19
625.474	6.19
625.807	6.19
626.14	6.17
626.473	6.14
626.806	6.15
627.138	6.15
627.471	6.08
627.804	6.05
628.137	6.06
628.469	6.05
628.802	6.04
629.135	6.03
629.467	6.05
629.8	6.03
630.132	6.03
630.465	6.04
630.797	6.02
631.129	5.98
631.461	5.96
631.794	5.99
632.126	5.95
632.458	5.93
632.79	5.95
633.122	5.95
633.454	5.94
633.786	5.93
634.118	5.95
634.45	5.99
634.781	6
635.113	5.97
635.445	5.96
635.777	5.97
636.108	5.95
636.44	5.96
636.771	5.98
637.103	5.94
637.434	5.92
637.765	5.9
638.097	5.95
638.428	5.9
638.759	5.83
639.09	5.82
639.422	5.82
639.753	5.79
640.084	5.76
640.415	5.75
640.746	5.76
641.077	5.71
641.407	5.64
641.738	5.62
642.069	5.63
642.4	5.64
642.73	5.61
643.061	5.62
643.392	5.59
643.722	5.55
644.053	5.58
644.383	5.56
644.713	5.54
645.044	5.46
645.374	5.48
645.704	5.46
646.034	5.48
646.365	5.47
646.695	5.51
647.025	5.56
647.355	5.56
647.685	5.52
648.015	5.52
648.344	5.56
648.674	5.55
649.004	5.5
649.334	5.5
649.663	5.52
649.993	5.52
650.323	5.52
650.652	5.53
650.982	5.52
651.311	5.52
651.64	5.53
651.97	5.54
652.299	5.53
652.628	5.54
652.958	5.54
653.287	5.58
653.616	5.51
653.945	5.43
654.274	5.43
654.603	5.44
654.932	5.44
655.261	5.42
655.589	5.45
655.918	5.49
656.247	5.51
656.576	5.55
656.904	5.57
657.233	5.6
657.561	5.63
657.89	5.64
658.218	5.68
658.547	5.69
658.875	5.7
659.203	5.71
659.532	5.72
659.86	5.71
660.188	5.68
660.516	5.7
660.844	5.69
661.172	5.71
661.5	5.74
661.828	5.71
662.156	5.72
662.484	5.7
662.811	5.68
663.139	5.65
663.467	5.57
663.794	5.56
664.122	5.49
664.45	5.42
664.777	5.4
665.104	5.38
665.432	5.32
665.759	5.33
666.086	5.39
666.414	5.37
666.741	5.43
667.068	5.46
667.395	5.49
667.722	5.49
668.049	5.49
668.376	5.47
668.703	5.48
669.03	5.44
669.357	5.43
669.683	5.41
670.01	5.4
670.337	5.42
670.663	5.41
670.99	5.42
671.317	5.41
671.643	5.39
671.969	5.37
672.296	5.41
672.622	5.35
672.948	5.28
673.275	5.31
673.601	5.28
673.927	5.24
674.253	5.26
674.579	5.3
674.905	5.29
675.231	5.28
675.557	5.31
675.883	5.33
676.209	5.41
676.534	5.47
676.86	5.49
677.186	5.48
677.511	5.53
677.837	5.59
678.162	5.62
678.488	5.63
678.813	5.69
679.139	5.7
679.464	5.77
679.789	5.77
680.114	5.73
680.44	5.71
680.765	5.72
681.09	5.68
681.415	5.66
681.74	5.67
682.065	5.72
682.39	5.74
682.714	5.8
683.039	5.74
683.364	5.72
683.689	5.72
684.013	5.75
684.338	5.7
684.662	5.67
684.987	5.71
685.311	5.75
685.636	5.72
685.96	5.71
686.284	5.65
686.608	5.63
686.933	5.61
687.257	5.64
687.581	5.67
687.905	5.68
688.229	5.68
688.553	5.66
688.877	5.61
689.201	5.58
689.524	5.58
689.848	5.62
690.172	5.65
690.496	5.65
690.819	5.61
691.143	5.58
691.466	5.5
691.79	5.42
692.113	5.39
692.436	5.41
692.76	5.48
693.083	5.52
693.406	5.59
693.729	5.7
694.053	5.69
694.376	5.66
694.699	5.62
695.022	5.59
695.344	5.59
695.667	5.64
695.99	5.71
696.313	5.73
696.636	5.77
696.958	5.83
697.281	5.91
697.604	6
697.926	6.03
698.249	6.24
698.571	6.33
698.893	6.32
699.216	6.32
699.538	6.24
699.86	6.23
700.182	6.19
700.504	6.16
700.827	6.18
701.149	6.23
701.471	6.35
701.793	6.43
702.114	6.49
702.436	6.53
702.758	6.53
703.08	6.52
703.401	6.45
703.723	6.38
704.045	6.35
704.366	6.34
704.688	6.33
705.009	6.11
705.331	6.04
705.652	6.06
705.973	6.03
706.294	6.07
706.616	6.13
706.937	6.18
707.258	6.21
707.579	6.22
707.9	6.16
708.221	6.14
708.542	6.15
708.863	6.12
709.183	6.09
709.504	6.05
709.825	6.05
710.145	6.07
710.466	6.08
710.787	6.03
711.107	5.98
711.427	6.02
711.748	6.14
712.068	6.16
712.388	6.15
712.709	6.17
713.029	6.25
713.349	6.26
713.669	6.26
713.989	6.32
714.309	6.28
714.629	6.37
714.949	6.36
715.269	6.4
715.589	6.42
715.908	6.46
716.228	6.5
716.548	6.54
716.867	6.57
717.187	6.64
717.506	6.63
717.826	6.73
718.145	6.77
718.465	6.75
718.784	6.87
719.103	7.02
719.422	7.18
719.741	7.15
720.061	7.24
720.38	7.3
720.699	7.3
721.018	7.42
721.336	7.48
721.655	7.6
721.974	7.67
722.293	7.88
722.612	8.04
722.93	8.2
723.249	8.3
723.567	8.45
723.886	8.57
724.204	8.79
724.523	8.9
724.841	8.96
725.159	9.05
725.477	9.13
725.796	9.18
726.114	9.25
726.432	9.37
726.75	9.45
727.068	9.56
727.386	9.66
727.704	9.78
728.022	9.92
728.339	10.04
728.657	10.12
728.975	10.11
729.292	10.17
729.61	10.18
729.928	10.25
730.245	10.24
730.562	10.34
730.88	10.42
731.197	10.53
731.514	10.71
731.832	10.81
732.149	10.9
732.466	11.02
732.783	11.1
733.1	11.21
733.417	11.33
733.734	11.44
734.051	11.45
734.368	11.45
734.684	11.48
735.001	11.5
735.318	11.58
735.634	11.66
735.951	11.68
736.268	11.79
736.584	11.94
736.9	12.09
737.217	12.11
737.533	12.27
737.849	12.34
738.166	12.29
738.482	12.4
738.798	12.44
739.114	12.5
739.43	12.6
739.746	12.7
740.062	12.71
740.378	12.73
740.693	13
741.009	13.16
741.325	13.28
741.641	13.45
741.956	13.54
742.272	13.68
742.587	13.95
742.903	14.06
743.218	14.07
743.533	14.28
743.849	14.53
744.164	14.56
744.479	14.67
744.794	14.7
745.109	14.76
745.424	14.85
745.739	14.8
746.054	14.8
746.369	14.85
746.684	14.95
746.999	15.09
747.313	15.09
747.628	15.12
747.943	15.11
748.257	15.13
748.572	15.18
748.886	15.29
749.201	15.35
749.515	15.43
749.829	15.61
750.144	15.59
750.458	15.54
750.772	15.52
751.086	15.68
751.4	15.77
751.714	15.75
752.028	15.77
752.342	15.89
752.656	16.09
752.97	16.19
753.284	16.27
753.597	16.35
753.911	16.5
754.225	16.53
754.538	16.64
754.852	16.71
755.165	16.85
755.478	16.81
755.792	16.78
756.105	16.71
756.418	16.66
756.731	16.74
757.045	16.78
757.358	16.7
757.671	16.59
757.984	16.79
758.297	16.96
758.609	17.18
758.922	17.18
759.235	17.21
759.548	17.19
759.86	17.13
760.173	16.96
760.486	16.64
760.798	16.45
761.111	16.23
761.423	16.12
761.735	16.03
762.048	15.97
762.36	15.87
762.672	15.99
762.984	16.09
763.296	16.19
763.608	16.27
763.92	16.44
764.232	16.52
764.544	16.53
764.856	16.6
765.168	16.59
765.48	16.72
765.791	16.75
766.103	16.83
766.414	17.04
766.726	17.33
767.037	17.72
767.349	18.23
767.66	18.76
767.972	19.08
768.283	19.33
768.594	19.82
768.905	20.17
769.216	20.39
769.527	20.65
769.838	20.63
770.149	20.89
770.46	21.05
770.771	21.15
771.082	21.34
771.393	21.47
771.703	21.62
772.014	21.77
772.324	21.78
772.635	22.1
772.945	22.22
773.256	22.4
773.566	22.58
773.877	22.72
774.187	22.73
774.497	23.05
774.807	23.39
775.117	23.39
775.427	23.74
775.737	23.96
776.047	23.98
776.357	24.26
776.667	24.36
776.977	24.59
777.287	24.87
777.596	24.98
777.906	25.36
778.216	25.61
778.525	25.65
778.835	25.84
779.144	25.56
779.453	25.57
779.763	25.51
780.072	25.48
780.381	25.4
780.69	25.48
781	25.44
781.309	25.51
781.618	25.73
781.927	25.68
782.235	25.52
782.544	25.58
782.853	25.69
783.162	25.75
783.471	25.78
783.779	25.81
784.088	25.82
784.396	25.64
784.705	25.53
785.013	25.71
785.322	25.8
785.63	26.12
785.938	26.07
786.246	26
786.554	26.11
786.863	26.14
787.171	25.94
787.479	26.06
787.787	26.07
788.094	26.12
788.402	26.3
788.71	26.62
789.018	26.79
789.326	26.85
789.633	26.84
789.941	26.93
790.248	26.92
790.556	27.09
790.863	27.39
791.171	27.67
791.478	27.8
791.785	28.04
792.092	28.27
792.399	28.34
792.707	28.61
793.014	28.51
793.321	28.46
793.628	28.79
793.934	28.74
794.241	28.63
794.548	28.58
794.855	28.32
795.161	28.12
795.468	28.19
795.775	28.29
796.081	28.51
796.388	28.59
796.694	28.74
797	28.75
797.307	28.61
797.613	28.41
797.919	28.3
798.225	28.29
798.531	28.19
798.837	28.55
799.143	28.68
799.449	29.21
799.755	29.66
800.061	29.85
800.367	30.1
800.672	30.24
800.978	30.26
801.284	30.25
801.589	30.39
801.895	30.21
802.2	30.23
802.506	30.15
802.811	30.03
803.116	30.01
803.421	29.98
803.727	29.94
804.032	30.14
804.337	30.19
804.642	30.12
804.947	30.34
805.252	30.23
805.556	30.25
805.861	30.05
806.166	30.16
806.471	30.28
806.775	30.26
807.08	30.28
807.384	30.5
807.689	31.07
807.993	31.48
808.298	31.75
808.602	31.87
808.906	32.22
809.211	32.44
809.515	32.44
809.819	32.42
810.123	32.4
810.427	32.46
810.731	32.74
811.035	33.09
811.338	33.11
811.642	33.5
811.946	33.69
812.25	33.88
812.553	33.89
812.857	33.67
813.16	33.82
813.464	34.27
813.767	34.12
814.07	33.86
814.374	33.52
814.677	33.28
814.98	33.12
815.283	32.77
815.586	32.75
815.889	32.99
816.192	33.17
816.495	33.14
816.798	33.09
817.101	32.76
817.404	32.1
817.706	31.35
818.009	30.35
818.312	29.53
818.614	28.42
818.917	26.89
819.219	25.11
819.521	23.15
819.824	21.27
820.126	20.15
820.428	19.3
820.73	18.68
821.032	18.28
821.334	17.96
821.636	17.74
821.938	17.59
822.24	17.46
822.542	17.34
822.844	17.26
823.145	17.2
823.447	17.15
823.749	17.11
824.05	17.08
824.352	17.07
824.653	17.06
824.955	17.06
825.256	17.14
825.557	17.34
825.858	17.66
826.16	18.1
826.461	18.54
826.762	19.09
827.063	19.63
827.364	20.23
827.665	20.7
827.965	21.17
828.266	21.63
828.567	22.01
828.868	22.48
829.168	22.89
829.469	23.19
829.769	23.47
830.07	23.96
830.37	24.45
830.67	24.81
830.971	25.28
831.271	25.95
831.571	26.5
831.871	26.67
832.171	26.76
832.471	26.86
832.771	27
833.071	26.93
833.371	26.99
833.671	26.96
833.971	27.24
834.27	27.44
834.57	27.61
834.869	27.72
835.169	27.74
835.468	27.83
835.768	27.96
836.067	28.08
836.367	28.29
836.666	28.47
836.965	29
837.264	29.71
837.563	30.21
837.862	30.82
838.161	31.55
838.46	32.6
838.759	33.74
839.058	34.99
839.356	36.17
839.655	37.08
839.954	38.03
840.252	38.56
840.551	39.22
840.849	39.21
841.148	39.23
841.446	39.34
841.744	39.56
842.043	39.84
842.341	40.2
842.639	40.41
842.937	40.52
843.235	40.88
843.533	41.27
843.831	42.11
844.129	42.9
844.427	44.22
844.724	45.37
845.022	46.35
845.32	46.96
845.617	47.22
845.915	47.81
846.212	48.88
846.51	49.83
846.807	50.11
847.104	51.35
847.402	52.75
847.699	54.09
847.996	55
848.293	55.79
848.59	56.46
848.887	56.46
849.184	57.03
849.481	57.23
849.778	57.14
850.074	57.17
850.371	57.88
850.668	58.3
850.964	58.57
851.261	58.99
851.557	58.99
851.854	59.96
852.15	60.19
852.446	59.77
852.743	59.34
853.039	59.07
853.335	59.07
853.631	58.77
853.927	58.21
854.223	57.93
854.519	57.13
854.815	56.8
855.111	57.12
855.406	56.91
855.702	57.11
855.998	57.23
856.293	56.95
856.589	56.03
856.884	56.1
857.18	55.84
857.475	56.02
857.77	56.17
858.066	55.68
858.361	56.38
858.656	56.7
858.951	57.6
859.246	58.87
859.541	59.41
859.836	59.86
860.131	59.95
860.426	59.64
860.72	59.65
861.015	59.3
861.31	58.88
861.604	59.2
861.899	58.82
862.193	58.43
862.487	59.1
862.782	59.74
863.076	59.92
863.37	60.36
863.664	60.33
863.959	61.05
864.253	61.95
864.547	61.68
864.841	62.04
865.135	61.46
865.428	60.27
865.722	59.93
866.016	60.08
866.31	60.62
866.603	61.41
866.897	61.92
867.19	62.54
867.484	63
867.777	62.9
868.07	63.22
868.364	63.19
868.657	62.51
868.95	62.94
869.243	63.34
869.536	62.43
869.829	62.51
870.122	61.37
870.415	59.83
870.708	59.54
871	58.83
871.293	58.41
871.586	58.55
871.878	58.51
872.171	58.3
872.463	57.94
872.756	57.38
873.048	58
873.341	57.87
873.633	57.89
873.925	58.09
874.217	58.28
874.509	58.89
874.801	59.89
875.093	59.7
875.385	58.94
875.677	59.96
875.969	58.89
