Data from Anodorhynchus_glaucus_45_25_head_Reflection_2.txt Node
Date: Wed Mar 17 16:36:13 GMT-03:00 2021
User: Darío
Spectrometer: USB2E3644
Trigger mode: 4
Integration Time (sec): 2.480000E-1
Scans to average: 10
Electric dark correction enabled: true
Nonlinearity correction enabled: false
Boxcar width: 10
XAxis mode: Wavelengths
Number of Pixels in Spectrum: 2048
>>>>>Begin Spectral Data<<<<<
178.315	-370.94
178.696	-366.67
179.076	-593.83
179.457	-2477.78
179.838	551.85
180.218	341.98
180.599	119.26
180.979	140
181.36	77.16
181.74	96.41
182.121	96.97
182.501	86.34
182.881	88.76
183.262	97.57
183.642	108.25
184.022	126.54
184.402	141.36
184.783	147.84
185.163	149.3
185.543	164.93
185.923	181.14
186.303	191.35
186.683	199.04
187.063	188.96
187.443	185.23
187.823	172.48
188.203	157.37
188.583	149.87
188.963	150.61
189.343	150.59
189.723	146.87
190.102	139.78
190.482	135.68
190.862	134.02
191.242	130.16
191.621	128.94
192.001	126.19
192.38	125.48
192.76	125.55
193.14	123.42
193.519	119.5
193.898	117.23
194.278	114.95
194.657	113.89
195.037	112.11
195.416	108.82
195.795	107.88
196.175	109.04
196.554	106.31
196.933	104.86
197.312	104.1
197.692	103.14
198.071	104.51
198.45	105.8
198.829	107.42
199.208	108.07
199.587	107.41
199.966	108.95
200.345	109.33
200.724	108.89
201.103	110.24
201.482	112.13
201.86	113.39
202.239	112.29
202.618	111.4
202.997	111.85
203.375	113.2
203.754	115.97
204.133	115.46
204.511	116.24
204.89	118.39
205.269	120.87
205.647	123.01
206.026	123.67
206.404	126.13
206.782	125.03
207.161	124.56
207.539	125.49
207.918	123.5
208.296	122.42
208.674	122.75
209.052	120.78
209.431	117.2
209.809	116.3
210.187	116.18
210.565	115.66
210.943	115.04
211.321	114.73
211.699	116.28
212.077	120.74
212.455	123.1
212.833	121.96
213.211	121.09
213.589	125.56
213.967	125.92
214.345	125.38
214.722	129.94
215.1	133.25
215.478	134.9
215.855	134.65
216.233	134.69
216.611	140.19
216.988	149.32
217.366	163.19
217.743	167.88
218.121	169.25
218.498	167.2
218.876	167.45
219.253	167.82
219.631	162.51
220.008	155.27
220.385	157.35
220.762	156.99
221.14	156.3
221.517	149.9
221.894	146.92
222.271	141.91
222.648	139
223.025	139.22
223.402	137.51
223.78	141.06
224.157	143.67
224.533	138.59
224.91	133.79
225.287	133.69
225.664	133.61
226.041	138.48
226.418	142.31
226.795	139.53
227.171	135.4
227.548	134.81
227.925	135.85
228.301	132.97
228.678	131.45
229.055	132.2
229.431	132.1
229.808	141.89
230.184	150.17
230.561	152.71
230.937	156.63
231.313	158.51
231.69	157.05
232.066	158.81
232.442	162.41
232.819	164.87
233.195	160.81
233.571	157.01
233.947	152.44
234.323	154.31
234.699	162.04
235.075	163.95
235.451	158
235.827	157.42
236.203	163.28
236.579	168.71
236.955	179.53
237.331	194.37
237.707	203.62
238.083	213.25
238.459	238.12
238.834	280.04
239.21	368.33
239.586	529.25
239.961	589.74
240.337	663.45
240.713	821.57
241.088	1093.59
241.464	2221.79
241.839	-7283.33
242.215	-1450.41
242.59	-630.18
242.965	-317.72
243.341	-168.3
243.716	-123.16
244.091	-95.42
244.467	-81.35
244.842	-74.93
245.217	-72.07
245.592	-70.12
245.967	-68.71
246.343	-66.56
246.718	-67.65
247.093	-69.96
247.468	-69.92
247.843	-68.24
248.218	-65.02
248.593	-62.09
248.967	-59.89
249.342	-57.84
249.717	-56.5
250.092	-55.39
250.467	-56.34
250.841	-58.16
251.216	-64.75
251.591	-69.95
251.965	-77.04
252.34	-85.79
252.714	-92.12
253.089	-95.21
253.463	-94.99
253.838	-91.35
254.212	-87.62
254.587	-81.63
254.961	-73.89
255.335	-63.45
255.71	-53.84
256.084	-43
256.458	-35.9
256.832	-30.44
257.206	-25.73
257.581	-23.93
257.955	-23.18
258.329	-21.77
258.703	-20.35
259.077	-20.15
259.451	-20
259.825	-19.47
260.199	-18.57
260.572	-17.87
260.946	-17.57
261.32	-17.53
261.694	-17.52
262.068	-17.25
262.441	-17.41
262.815	-17.1
263.189	-16.82
263.562	-16.83
263.936	-18.98
264.309	-20.56
264.683	-21.96
265.056	-23.41
265.43	-23.93
265.803	-23.61
266.176	-23.64
266.55	-23.91
266.923	-22.93
267.296	-21.66
267.67	-21.84
268.043	-21.4
268.416	-20.68
268.789	-19.12
269.162	-17.53
269.535	-16.36
269.908	-15.5
270.281	-15.3
270.654	-15.04
271.027	-15.34
271.4	-15.5
271.773	-15.46
272.146	-15.17
272.519	-15.15
272.891	-15.29
273.264	-14.59
273.637	-14.13
274.01	-13.65
274.382	-13.09
274.755	-13.39
275.127	-13.76
275.5	-14.08
275.872	-14.69
276.245	-14.97
276.617	-15.04
276.99	-15.76
277.362	-15.69
277.734	-16.06
278.107	-15.79
278.479	-15.9
278.851	-15.62
279.223	-14.97
279.596	-13.95
279.968	-13.56
280.34	-13.09
280.712	-12.87
281.084	-12.89
281.456	-12.41
281.828	-12.26
282.2	-11.84
282.572	-11.11
282.944	-10.76
283.315	-10.45
283.687	-10.36
284.059	-10.02
284.431	-9.67
284.802	-9.28
285.174	-9.34
285.546	-9.16
285.917	-9.06
286.289	-8.78
286.66	-8.35
287.032	-8.09
287.403	-7.97
287.775	-8.05
288.146	-8.41
288.518	-8.61
288.889	-8.71
289.26	-8.9
289.632	-9.12
290.003	-9.26
290.374	-9.56
290.745	-9.98
291.116	-9.92
291.487	-9.43
291.858	-9.37
292.229	-9.4
292.6	-8.99
292.971	-8.54
293.342	-8.32
293.713	-7.97
294.084	-7.64
294.455	-8.04
294.826	-8.42
295.196	-8.5
295.567	-8.3
295.938	-7.73
296.308	-7.26
296.679	-6.96
297.05	-6.94
297.42	-6.8
297.791	-6.66
298.161	-6.3
298.532	-5.62
298.902	-5.24
299.272	-5.24
299.643	-5.34
300.013	-5.51
300.383	-5.65
300.754	-5.92
301.124	-5.86
301.494	-5.83
301.864	-6.09
302.234	-5.78
302.604	-5.4
302.974	-5.22
303.344	-5.38
303.714	-5.61
304.084	-5.46
304.454	-5.14
304.824	-4.99
305.194	-4.58
305.563	-4.56
305.933	-4.39
306.303	-4.46
306.673	-4.52
307.042	-4.13
307.412	-3.81
307.781	-3.66
308.151	-3.5
308.521	-3.19
308.89	-3.07
309.259	-2.89
309.629	-2.65
309.998	-2.41
310.368	-2.36
310.737	-2.47
311.106	-2.25
311.475	-2.11
311.845	-2.17
312.214	-2.27
312.583	-2.21
312.952	-2.18
313.321	-2.12
313.69	-2.2
314.059	-2.36
314.428	-2.28
314.797	-2.27
315.166	-2.22
315.535	-2.01
315.904	-1.93
316.272	-1.61
316.641	-1.48
317.01	-1.47
317.379	-1.31
317.747	-1.32
318.116	-1.12
318.484	-1.02
318.853	-0.98
319.221	-0.62
319.59	-0.17
319.958	-0.07
320.327	0.13
320.695	0.29
321.063	0.28
321.432	0.16
321.8	0.35
322.168	0.31
322.536	0.42
322.905	0.39
323.273	0.31
323.641	0.22
324.009	0.05
324.377	-0.08
324.745	-0.03
325.113	-0.04
325.481	0.06
325.849	0.03
326.216	0.17
326.584	0.19
326.952	-0.04
327.32	-0.27
327.687	-0.33
328.055	-0.35
328.423	-0.47
328.79	-0.47
329.158	-0.38
329.525	-0.46
329.893	-0.41
330.26	-0.52
330.628	-0.4
330.995	-0.46
331.362	-0.48
331.73	-0.53
332.097	-0.52
332.464	-0.42
332.831	-0.26
333.199	-0.16
333.566	0.16
333.933	0.14
334.3	0.17
334.667	0.31
335.034	0.41
335.401	0.58
335.768	0.63
336.135	0.64
336.502	0.79
336.868	0.98
337.235	1.2
337.602	1.28
337.969	1.33
338.335	1.37
338.702	1.59
339.069	1.73
339.435	1.75
339.802	1.79
340.168	1.73
340.535	1.71
340.901	1.67
341.267	1.48
341.634	1.48
342	1.63
342.366	1.71
342.733	1.79
343.099	1.82
343.465	2.04
343.831	2.27
344.197	2.33
344.563	2.26
344.929	2.17
345.295	2.18
345.661	2.26
346.027	2.23
346.393	2.22
346.759	2.3
347.125	2.41
347.491	2.56
347.856	2.67
348.222	2.75
348.588	2.86
348.953	2.98
349.319	3.13
349.684	3.21
350.05	3.18
350.415	3.15
350.781	3.15
351.146	3.01
351.512	2.9
351.877	2.95
352.242	3.06
352.608	3.22
352.973	3.4
353.338	3.48
353.703	3.6
354.068	3.6
354.433	3.63
354.798	3.67
355.164	3.68
355.528	3.7
355.893	3.7
356.258	3.71
356.623	3.69
356.988	3.74
357.353	3.7
357.718	3.72
358.082	3.83
358.447	3.88
358.812	3.94
359.176	4.06
359.541	4.03
359.905	4.02
360.27	3.99
360.634	3.98
360.999	3.97
361.363	3.92
361.728	4.04
362.092	4.13
362.456	4.09
362.821	4.13
363.185	4.12
363.549	4.12
363.913	4.11
364.277	4.19
364.641	4.17
365.005	4.22
365.369	4.28
365.733	4.26
366.097	4.29
366.461	4.37
366.825	4.35
367.189	4.45
367.553	4.55
367.916	4.72
368.28	4.78
368.644	4.85
369.007	5
369.371	5.02
369.734	5.04
370.098	5.16
370.461	5.26
370.825	5.39
371.188	5.5
371.552	5.63
371.915	5.66
372.278	5.78
372.642	5.89
373.005	5.97
373.368	6
373.731	6.11
374.094	6.17
374.457	6.26
374.82	6.32
375.183	6.4
375.546	6.42
375.909	6.49
376.272	6.57
376.635	6.62
376.998	6.67
377.361	6.73
377.723	6.8
378.086	6.86
378.449	6.92
378.811	6.98
379.174	6.99
379.537	7.01
379.899	7.04
380.262	7.07
380.624	7.11
380.987	7.21
381.349	7.23
381.711	7.25
382.074	7.27
382.436	7.28
382.798	7.43
383.16	7.39
383.522	7.36
383.884	7.36
384.247	7.42
384.609	7.5
384.971	7.55
385.333	7.61
385.695	7.62
386.056	7.65
386.418	7.66
386.78	7.76
387.142	7.78
387.504	7.72
387.865	7.72
388.227	7.74
388.589	7.74
388.95	7.75
389.312	7.77
389.673	7.79
390.035	7.78
390.396	7.66
390.758	7.69
391.119	7.72
391.48	7.72
391.842	7.7
392.203	7.65
392.564	7.66
392.925	7.63
393.286	7.6
393.648	7.61
394.009	7.63
394.37	7.59
394.731	7.64
395.092	7.69
395.452	7.72
395.813	7.71
396.174	7.7
396.535	7.7
396.896	7.68
397.257	7.69
397.617	7.75
397.978	7.78
398.338	7.77
398.699	7.8
399.06	7.87
399.42	7.82
399.781	7.87
400.141	7.85
400.501	7.88
400.862	7.94
401.222	7.9
401.582	7.91
401.943	7.89
402.303	7.88
402.663	7.9
403.023	7.91
403.383	7.93
403.743	7.95
404.103	8.02
404.463	8.06
404.823	8.09
405.183	8.07
405.543	8.08
405.903	8.1
406.262	8.08
406.622	8.03
406.982	8.06
407.342	8.05
407.701	8.05
408.061	8.02
408.42	8.01
408.78	7.99
409.139	7.96
409.499	7.95
409.858	7.97
410.217	7.97
410.577	7.95
410.936	7.96
411.295	7.96
411.655	7.88
412.014	7.84
412.373	7.82
412.732	7.8
413.091	7.77
413.45	7.74
413.809	7.73
414.168	7.69
414.527	7.63
414.886	7.58
415.245	7.49
415.603	7.46
415.962	7.42
416.321	7.4
416.679	7.36
417.038	7.31
417.397	7.25
417.755	7.17
418.114	7.13
418.472	7.08
418.831	7.06
419.189	7.05
419.547	7.01
419.906	6.98
420.264	6.96
420.622	6.94
420.981	6.93
421.339	6.9
421.697	6.89
422.055	6.9
422.413	6.9
422.771	6.94
423.129	6.95
423.487	6.96
423.845	6.98
424.203	7
424.56	7.05
424.918	7.07
425.276	7.11
425.634	7.15
425.991	7.19
426.349	7.22
426.707	7.25
427.064	7.27
427.422	7.3
427.779	7.36
428.137	7.39
428.494	7.45
428.851	7.5
429.209	7.52
429.566	7.51
429.923	7.51
430.28	7.49
430.637	7.51
430.995	7.47
431.352	7.43
431.709	7.43
432.066	7.41
432.423	7.41
432.78	7.43
433.137	7.44
433.493	7.43
433.85	7.47
434.207	7.4
434.564	7.38
434.92	7.38
435.277	7.34
435.634	7.32
435.99	7.28
436.347	7.27
436.703	7.29
437.06	7.26
437.416	7.27
437.773	7.25
438.129	7.2
438.485	7.26
438.841	7.26
439.198	7.25
439.554	7.24
439.91	7.24
440.266	7.22
440.622	7.21
440.978	7.18
441.334	7.12
441.69	7.15
442.046	7.15
442.402	7.12
442.758	7.09
443.113	7.05
443.469	7.03
443.825	7
444.181	6.98
444.536	6.99
444.892	6.98
445.247	7
445.603	7.02
445.958	7
446.314	7.01
446.669	7.02
447.025	7.03
447.38	7.03
447.735	7.03
448.09	7.03
448.446	7.04
448.801	7.05
449.156	7.05
449.511	7.07
449.866	7.1
450.221	7.15
450.576	7.22
450.931	7.3
451.286	7.36
451.641	7.4
451.995	7.43
452.35	7.46
452.705	7.47
453.06	7.48
453.414	7.48
453.769	7.47
454.123	7.46
454.478	7.46
454.832	7.48
455.187	7.45
455.541	7.46
455.896	7.43
456.25	7.42
456.604	7.41
456.958	7.39
457.313	7.38
457.667	7.37
458.021	7.37
458.375	7.37
458.729	7.36
459.083	7.37
459.437	7.37
459.791	7.36
460.145	7.37
460.499	7.36
460.852	7.38
461.206	7.43
461.56	7.43
461.914	7.44
462.267	7.43
462.621	7.45
462.974	7.45
463.328	7.48
463.681	7.5
464.035	7.54
464.388	7.58
464.742	7.61
465.095	7.63
465.448	7.66
465.801	7.63
466.155	7.63
466.508	7.63
466.861	7.63
467.214	7.64
467.567	7.63
467.92	7.64
468.273	7.62
468.626	7.59
468.979	7.61
469.332	7.6
469.684	7.6
470.037	7.62
470.39	7.63
470.743	7.65
471.095	7.68
471.448	7.69
471.8	7.71
472.153	7.72
472.505	7.72
472.858	7.73
473.21	7.75
473.562	7.79
473.915	7.82
474.267	7.82
474.619	7.83
474.971	7.86
475.324	7.86
475.676	7.92
476.028	7.9
476.38	7.9
476.732	7.91
477.084	7.91
477.436	7.93
477.787	7.92
478.139	7.94
478.491	7.94
478.843	7.95
479.195	7.98
479.546	7.94
479.898	7.9
480.249	7.86
480.601	7.82
480.952	7.78
481.304	7.75
481.655	7.75
482.007	7.74
482.358	7.74
482.709	7.73
483.061	7.7
483.412	7.71
483.763	7.72
484.114	7.73
484.465	7.73
484.816	7.73
485.167	7.74
485.518	7.73
485.869	7.74
486.22	7.74
486.571	7.75
486.922	7.77
487.272	7.8
487.623	7.81
487.974	7.85
488.324	7.89
488.675	7.92
489.025	7.94
489.376	7.97
489.726	8.01
490.077	8.03
490.427	8.06
490.778	8.09
491.128	8.12
491.478	8.15
491.828	8.22
492.179	8.26
492.529	8.3
492.879	8.35
493.229	8.37
493.579	8.38
493.929	8.39
494.279	8.41
494.629	8.42
494.979	8.46
495.328	8.52
495.678	8.56
496.028	8.61
496.378	8.67
496.727	8.71
497.077	8.73
497.426	8.76
497.776	8.75
498.125	8.78
498.475	8.8
498.824	8.82
499.174	8.79
499.523	8.79
499.872	8.83
500.221	8.84
500.571	8.87
500.92	8.89
501.269	8.93
501.618	8.93
501.967	8.96
502.316	8.99
502.665	9.03
503.014	9.07
503.363	9.09
503.711	9.1
504.06	9.13
504.409	9.15
504.758	9.14
505.106	9.19
505.455	9.21
505.803	9.2
506.152	9.2
506.5	9.23
506.849	9.25
507.197	9.24
507.546	9.28
507.894	9.31
508.242	9.33
508.59	9.32
508.939	9.35
509.287	9.37
509.635	9.36
509.983	9.36
510.331	9.36
510.679	9.37
511.027	9.38
511.375	9.4
511.723	9.42
512.07	9.46
512.418	9.5
512.766	9.52
513.114	9.57
513.461	9.61
513.809	9.61
514.156	9.64
514.504	9.67
514.851	9.68
515.199	9.67
515.546	9.67
515.893	9.69
516.241	9.7
516.588	9.7
516.935	9.74
517.282	9.75
517.63	9.77
517.977	9.78
518.324	9.79
518.671	9.81
519.018	9.84
519.365	9.84
519.711	9.85
520.058	9.86
520.405	9.87
520.752	9.88
521.099	9.93
521.445	9.97
521.792	9.98
522.138	10
522.485	10.04
522.832	10.09
523.178	10.11
523.524	10.13
523.871	10.15
524.217	10.17
524.563	10.18
524.91	10.19
525.256	10.19
525.602	10.18
525.948	10.19
526.294	10.19
526.64	10.19
526.986	10.19
527.332	10.18
527.678	10.19
528.024	10.21
528.37	10.24
528.716	10.22
529.061	10.25
529.407	10.26
529.753	10.28
530.098	10.29
530.444	10.32
530.789	10.34
531.135	10.35
531.48	10.37
531.826	10.39
532.171	10.45
532.516	10.5
532.862	10.55
533.207	10.57
533.552	10.6
533.897	10.66
534.242	10.7
534.587	10.76
534.932	10.82
535.277	10.84
535.622	10.83
535.967	10.89
536.312	10.92
536.657	10.96
537.001	11.01
537.346	11.06
537.691	11.09
538.035	11.13
538.38	11.16
538.724	11.19
539.069	11.22
539.413	11.22
539.758	11.21
540.102	11.26
540.446	11.27
540.791	11.3
541.135	11.33
541.479	11.34
541.823	11.34
542.167	11.34
542.512	11.37
542.856	11.37
543.2	11.36
543.543	11.36
543.887	11.37
544.231	11.4
544.575	11.41
544.919	11.44
545.262	11.48
545.606	11.51
545.95	11.53
546.293	11.55
546.637	11.56
546.98	11.63
547.324	11.64
547.667	11.72
548.011	11.72
548.354	11.73
548.697	11.73
549.04	11.77
549.384	11.77
549.727	11.75
550.07	11.81
550.413	11.83
550.756	11.85
551.099	11.87
551.442	11.85
551.785	11.89
552.128	11.9
552.47	11.89
552.813	11.92
553.156	11.93
553.499	11.93
553.841	11.97
554.184	11.97
554.526	11.97
554.869	11.92
555.211	11.97
555.554	11.97
555.896	11.97
556.238	11.95
556.581	11.96
556.923	11.96
557.265	11.96
557.607	11.96
557.949	12
558.291	11.97
558.633	11.97
558.975	11.94
559.317	11.94
559.659	11.92
560.001	11.91
560.343	11.9
560.685	11.89
561.026	11.88
561.368	11.88
561.71	11.89
562.051	11.87
562.393	11.92
562.734	11.87
563.076	11.87
563.417	11.9
563.759	11.88
564.1	11.89
564.441	11.93
564.782	11.93
565.124	11.9
565.465	11.92
565.806	11.92
566.147	11.93
566.488	11.94
566.829	11.96
567.17	12
567.511	12
567.851	12.01
568.192	11.97
568.533	11.96
568.874	11.96
569.214	11.98
569.555	11.92
569.895	11.95
570.236	11.94
570.576	11.94
570.917	11.96
571.257	11.97
571.598	11.92
571.938	11.9
572.278	11.92
572.618	11.92
572.959	11.93
573.299	11.93
573.639	11.89
573.979	11.88
574.319	11.84
574.659	11.81
574.999	11.82
575.339	11.84
575.678	11.84
576.018	11.81
576.358	11.8
576.698	11.79
577.037	11.79
577.377	11.77
577.716	11.72
578.056	11.7
578.395	11.66
578.735	11.65
579.074	11.65
579.413	11.63
579.753	11.6
580.092	11.6
580.431	11.6
580.77	11.65
581.109	11.64
581.448	11.64
581.787	11.63
582.126	11.62
582.465	11.62
582.804	11.58
583.143	11.63
583.482	11.61
583.82	11.62
584.159	11.62
584.498	11.61
584.836	11.6
585.175	11.56
585.514	11.56
585.852	11.53
586.19	11.52
586.529	11.49
586.867	11.46
587.205	11.45
587.544	11.44
587.882	11.4
588.22	11.39
588.558	11.41
588.896	11.4
589.234	11.35
589.572	11.37
589.91	11.39
590.248	11.34
590.586	11.35
590.924	11.37
591.262	11.38
591.599	11.4
591.937	11.43
592.275	11.44
592.612	11.42
592.95	11.42
593.287	11.46
593.625	11.42
593.962	11.41
594.299	11.4
594.637	11.39
594.974	11.38
595.311	11.35
595.648	11.31
595.985	11.32
596.322	11.31
596.659	11.3
596.996	11.25
597.333	11.21
597.67	11.16
598.007	11.13
598.344	11.11
598.681	11.09
599.017	11.01
599.354	10.97
599.691	11
600.027	11.01
600.364	10.95
600.7	10.95
601.037	10.95
601.373	10.94
601.71	10.92
602.046	10.95
602.382	10.91
602.718	10.9
603.054	10.87
603.391	10.87
603.727	10.8
604.063	10.8
604.399	10.78
604.735	10.77
605.071	10.76
605.406	10.73
605.742	10.71
606.078	10.76
606.414	10.74
606.749	10.65
607.085	10.6
607.421	10.56
607.756	10.54
608.092	10.51
608.427	10.44
608.762	10.42
609.098	10.35
609.433	10.34
609.768	10.28
610.104	10.25
610.439	10.18
610.774	10.16
611.109	10.08
611.444	10.05
611.779	10.02
612.114	9.95
612.449	9.88
612.784	9.81
613.118	9.73
613.453	9.74
613.788	9.73
614.123	9.67
614.457	9.63
614.792	9.58
615.126	9.5
615.461	9.45
615.795	9.39
616.13	9.32
616.464	9.28
616.798	9.25
617.132	9.2
617.467	9.19
617.801	9.15
618.135	9.17
618.469	9.17
618.803	9.15
619.137	9.16
619.471	9.16
619.805	9.14
620.139	9.1
620.472	9.03
620.806	9.01
621.14	8.98
621.473	8.99
621.807	8.98
622.141	9.01
622.474	8.99
622.808	8.99
623.141	8.98
623.474	8.96
623.808	8.95
624.141	8.97
624.474	8.99
624.807	8.98
625.141	8.97
625.474	8.98
625.807	8.95
626.14	8.92
626.473	8.93
626.806	8.93
627.138	8.91
627.471	8.88
627.804	8.85
628.137	8.87
628.469	8.83
628.802	8.79
629.135	8.73
629.467	8.73
629.8	8.7
630.132	8.68
630.465	8.66
630.797	8.62
631.129	8.57
631.461	8.5
631.794	8.48
632.126	8.39
632.458	8.34
632.79	8.34
633.122	8.32
633.454	8.24
633.786	8.18
634.118	8.13
634.45	8.13
634.781	8.11
635.113	8.05
635.445	8
635.777	7.99
636.108	7.96
636.44	7.88
636.771	7.85
637.103	7.78
637.434	7.7
637.765	7.69
638.097	7.72
638.428	7.68
638.759	7.63
639.09	7.64
639.422	7.6
639.753	7.55
640.084	7.52
640.415	7.52
640.746	7.52
641.077	7.52
641.407	7.47
641.738	7.44
642.069	7.4
642.4	7.44
642.73	7.43
643.061	7.41
643.392	7.41
643.722	7.36
644.053	7.34
644.383	7.35
644.713	7.32
645.044	7.24
645.374	7.23
645.704	7.21
646.034	7.17
646.365	7.17
646.695	7.16
647.025	7.21
647.355	7.18
647.685	7.11
648.015	7.11
648.344	7.12
648.674	7.13
649.004	7.09
649.334	7.02
649.663	7.01
649.993	7.01
650.323	6.97
650.652	6.96
650.982	6.97
651.311	6.92
651.64	6.86
651.97	6.84
652.299	6.84
652.628	6.82
652.958	6.84
653.287	6.85
653.616	6.79
653.945	6.7
654.274	6.7
654.603	6.69
654.932	6.63
655.261	6.56
655.589	6.5
655.918	6.49
656.247	6.5
656.576	6.49
656.904	6.46
657.233	6.52
657.561	6.55
657.89	6.57
658.218	6.63
658.547	6.69
658.875	6.71
659.203	6.68
659.532	6.7
659.86	6.67
660.188	6.61
660.516	6.63
660.844	6.62
661.172	6.64
661.5	6.63
661.828	6.61
662.156	6.61
662.484	6.61
662.811	6.58
663.139	6.55
663.467	6.53
663.794	6.52
664.122	6.48
664.45	6.43
664.777	6.36
665.104	6.32
665.432	6.25
665.759	6.2
666.086	6.19
666.414	6.16
666.741	6.16
667.068	6.18
667.395	6.17
667.722	6.15
668.049	6.12
668.376	6.16
668.703	6.17
669.03	6.18
669.357	6.19
669.683	6.19
670.01	6.17
670.337	6.14
670.663	6.11
670.99	6.02
671.317	5.97
671.643	5.96
671.969	5.93
672.296	5.96
672.622	5.96
672.948	5.93
673.275	5.88
673.601	5.93
673.927	5.9
674.253	5.9
674.579	5.85
674.905	5.82
675.231	5.8
675.557	5.82
675.883	5.82
676.209	5.87
676.534	5.89
676.86	5.92
677.186	5.93
677.511	5.97
677.837	6.07
678.162	6.12
678.488	6.14
678.813	6.18
679.139	6.17
679.464	6.21
679.789	6.22
680.114	6.27
680.44	6.23
680.765	6.2
681.09	6.13
681.415	6.19
681.74	6.23
682.065	6.26
682.39	6.26
682.714	6.25
683.039	6.2
683.364	6.2
683.689	6.18
684.013	6.18
684.338	6.13
684.662	6.1
684.987	6.12
685.311	6.14
685.636	6.15
685.96	6.13
686.284	6.08
686.608	6.09
686.933	6.06
687.257	6.08
687.581	6.12
687.905	6.15
688.229	6.13
688.553	6.1
688.877	6.08
689.201	6.08
689.524	6.08
689.848	6.07
690.172	6.07
690.496	6.07
690.819	6.06
691.143	6.08
691.466	6.05
691.79	5.96
692.113	5.96
692.436	5.91
692.76	5.97
693.083	6
693.406	6.04
693.729	6.03
694.053	5.96
694.376	5.92
694.699	5.93
695.022	5.95
695.344	5.96
695.667	5.98
695.99	6.01
696.313	6.08
696.636	6.18
696.958	6.19
697.281	6.26
697.604	6.3
697.926	6.3
698.249	6.43
698.571	6.48
698.893	6.47
699.216	6.44
699.538	6.39
699.86	6.38
700.182	6.33
700.504	6.33
700.827	6.4
701.149	6.42
701.471	6.49
701.793	6.49
702.114	6.51
702.436	6.49
702.758	6.54
703.08	6.48
703.401	6.4
703.723	6.36
704.045	6.25
704.366	6.21
704.688	6.19
705.009	6.04
705.331	6.04
705.652	6.06
705.973	6.11
706.294	6.11
706.616	6.11
706.937	6.14
707.258	6.2
707.579	6.19
707.9	6.17
708.221	6.09
708.542	6.07
708.863	6.08
709.183	6.11
709.504	6.02
709.825	5.96
710.145	5.95
710.466	5.97
710.787	6.01
711.107	6.02
711.427	6.03
711.748	6.07
712.068	6.11
712.388	6.11
712.709	6.14
713.029	6.17
713.349	6.18
713.669	6.11
713.989	6.12
714.309	6.15
714.629	6.19
714.949	6.18
715.269	6.2
715.589	6.19
715.908	6.15
716.228	6.27
716.548	6.39
716.867	6.47
717.187	6.59
717.506	6.65
717.826	6.72
718.145	6.82
718.465	6.75
718.784	6.75
719.103	6.79
719.422	6.88
719.741	7
720.061	7.16
720.38	7.31
720.699	7.43
721.018	7.49
721.336	7.62
721.655	7.8
721.974	7.93
722.293	8.08
722.612	8.21
722.93	8.22
723.249	8.25
723.567	8.36
723.886	8.42
724.204	8.56
724.523	8.71
724.841	8.79
725.159	9.01
725.477	9.13
725.796	9.25
726.114	9.32
726.432	9.36
726.75	9.42
727.068	9.53
727.386	9.58
727.704	9.72
728.022	9.83
728.339	9.99
728.657	10.07
728.975	10.15
729.292	10.21
729.61	10.27
729.928	10.33
730.245	10.32
730.562	10.33
730.88	10.33
731.197	10.34
731.514	10.43
731.832	10.5
732.149	10.62
732.466	10.69
732.783	10.73
733.1	10.83
733.417	10.85
733.734	10.9
734.051	10.98
734.368	10.91
734.684	10.91
735.001	10.86
735.318	10.93
735.634	10.97
735.951	11.07
736.268	11.19
736.584	11.31
736.9	11.46
737.217	11.62
737.533	11.77
737.849	11.83
738.166	11.86
738.482	11.89
738.798	11.99
739.114	12.16
739.43	12.42
739.746	12.59
740.062	12.72
740.378	12.83
740.693	12.97
741.009	13.25
741.325	13.4
741.641	13.55
741.956	13.62
742.272	13.88
742.587	14.04
742.903	14.18
743.218	14.31
743.533	14.45
743.849	14.67
744.164	14.79
744.479	14.97
744.794	15.01
745.109	15.13
745.424	15.21
745.739	15.22
746.054	15.08
746.369	15.03
746.684	15.05
746.999	15.1
747.313	15.08
747.628	15.07
747.943	15.04
748.257	15.08
748.572	15.06
748.886	14.98
749.201	15.05
749.515	15.09
749.829	15.13
750.144	15.14
750.458	15.08
750.772	15.03
751.086	14.97
751.4	15.05
751.714	15.08
752.028	15.02
752.342	15.01
752.656	15.07
752.97	15.25
753.284	15.37
753.597	15.55
753.911	15.7
754.225	15.74
754.538	15.84
754.852	15.97
755.165	16.12
755.478	16.18
755.792	16.17
756.105	16.12
756.418	16.19
756.731	16.19
757.045	16.18
757.358	16.3
757.671	16.47
757.984	16.53
758.297	16.7
758.609	16.76
758.922	16.91
759.235	17.02
759.548	16.93
759.86	16.75
760.173	16.5
760.486	16.24
760.798	16.02
761.111	15.87
761.423	15.69
761.735	15.6
762.048	15.63
762.36	15.63
762.672	15.71
762.984	15.7
763.296	15.76
763.608	15.81
763.92	15.84
764.232	15.88
764.544	15.93
764.856	15.99
765.168	16.18
765.48	16.15
765.791	16.15
766.103	16.22
766.414	16.43
766.726	16.65
767.037	17.08
767.349	17.56
767.66	18.06
767.972	18.42
768.283	18.77
768.594	19.02
768.905	19.29
769.216	19.57
769.527	19.94
769.838	20.27
770.149	20.69
770.46	21.04
770.771	21.19
771.082	21.37
771.393	21.51
771.703	21.63
772.014	21.87
772.324	22.05
772.635	22.33
772.945	22.66
773.256	22.89
773.566	22.93
773.877	22.98
774.187	22.88
774.497	23.04
774.807	23.13
775.117	23.18
775.427	23.39
775.737	23.49
776.047	23.46
776.357	23.31
776.667	23.28
776.977	23.24
777.287	23.41
777.596	23.64
777.906	23.66
778.216	23.72
778.525	23.89
778.835	24.02
779.144	23.86
779.453	23.8
779.763	23.71
780.072	23.71
780.381	23.9
780.69	24.15
781	24.29
781.309	24.56
781.618	24.9
781.927	25.18
782.235	25.34
782.544	25.63
782.853	26.09
783.162	26.22
783.471	26.4
783.779	26.63
784.088	26.58
784.396	26.78
784.705	26.84
785.013	26.72
785.322	26.87
785.63	27.13
785.938	27.22
786.246	27.39
786.554	27.37
786.863	27.25
787.171	27.16
787.479	27.02
787.787	27.07
788.094	27.08
788.402	27.06
788.71	27.1
789.018	27.01
789.326	26.86
789.633	26.91
789.941	27.01
790.248	26.87
790.556	27.08
790.863	27.1
791.171	27.18
791.478	27.42
791.785	27.54
792.092	27.48
792.399	27.4
792.707	27.38
793.014	27.47
793.321	27.61
793.628	27.77
793.934	28.04
794.241	28.01
794.548	27.94
794.855	27.58
795.161	27.24
795.468	27.08
795.775	27
796.081	26.89
796.388	26.69
796.694	26.71
797	26.75
797.307	26.77
797.613	26.67
797.919	26.61
798.225	26.63
798.531	26.74
798.837	27.1
799.143	27.09
799.449	27.26
799.755	27.48
800.061	27.82
800.367	28.19
800.672	28.36
800.978	28.49
801.284	28.71
801.589	29.13
801.895	29.51
802.2	29.97
802.506	30.34
802.811	30.53
803.116	30.64
803.421	30.49
803.727	30.49
804.032	30.67
804.337	31.05
804.642	31.03
804.947	30.97
805.252	30.84
805.556	31.22
805.861	31.29
806.166	31.19
806.471	30.95
806.775	30.47
807.08	30.46
807.384	30.51
807.689	30.55
807.993	30.57
808.298	30.69
808.602	30.58
808.906	30.65
809.211	30.88
809.515	30.84
809.819	31.12
810.123	31.26
810.427	31.04
810.731	30.75
811.035	31.13
811.338	31.58
811.642	31.89
811.946	32.05
812.25	32.16
812.553	32.32
812.857	32.42
813.16	32.88
813.464	33.25
813.767	33.2
814.07	33.5
814.374	33.4
814.677	33.2
814.98	33.24
815.283	33.21
815.586	33.12
815.889	33.38
816.192	33.46
816.495	33.44
816.798	33.55
817.101	33.2
817.404	32.31
817.706	31.68
818.009	30.86
818.312	29.93
818.614	28.79
818.917	27.08
819.219	25.05
819.521	22.96
819.824	20.96
820.126	19.59
820.428	18.58
820.73	17.94
821.032	17.44
821.334	17.07
821.636	16.78
821.938	16.56
822.24	16.36
822.542	16.23
822.844	16.18
823.145	16.13
823.447	16.02
823.749	16.03
824.05	15.98
824.352	15.93
824.653	15.81
824.955	15.83
825.256	15.92
825.557	16.05
825.858	16.22
826.16	16.61
826.461	17.12
826.762	17.58
827.063	18.07
827.364	18.7
827.665	19.22
827.965	19.76
828.266	20.32
828.567	20.75
828.868	21.04
829.168	21.13
829.469	21.44
829.769	21.89
830.07	22.24
830.37	22.72
830.67	23.25
830.971	23.93
831.271	24.49
831.571	24.97
831.871	25.34
832.171	25.75
832.471	25.8
832.771	25.76
833.071	25.97
833.371	26.05
833.671	25.92
833.971	25.86
834.27	25.97
834.57	25.9
834.869	26
835.169	26.07
835.468	26.49
835.768	26.63
836.067	26.8
836.367	27.02
836.666	27.13
836.965	27.33
837.264	27.95
837.563	28.5
837.862	29.16
838.161	29.84
838.46	30.66
838.759	31.51
839.058	32.42
839.356	33.27
839.655	34.37
839.954	35.24
840.252	36.22
840.551	36.62
840.849	37.28
841.148	37.61
841.446	38.06
841.744	38.48
842.043	38.43
842.341	38.74
842.639	39.3
842.937	39.33
843.235	39.88
843.533	40.49
843.831	41.41
844.129	42.59
844.427	44.14
844.724	45.89
845.022	48.32
845.32	49.71
845.617	50.26
845.915	50.57
846.212	51.63
846.51	52.78
846.807	53.25
847.104	53.67
847.402	54.87
847.699	55.69
847.996	56.04
848.293	57.2
848.59	57.87
848.887	57.85
849.184	58.27
849.481	58.43
849.778	58.22
850.074	58.18
850.371	57.94
850.668	58.47
850.964	58.59
851.261	58.36
851.557	58.7
851.854	59.61
852.15	60.13
852.446	60.18
852.743	60.01
853.039	60.35
853.335	61.01
853.631	60.82
853.927	61.2
854.223	61.7
854.519	61.86
854.815	61.94
855.111	61.95
855.406	62.66
855.702	62.87
855.998	63.21
856.293	63.5
856.589	64.01
856.884	63.99
857.18	63.27
857.475	63.08
857.77	63.21
858.066	63.12
858.361	63.18
858.656	63.82
858.951	63.62
859.246	63.94
859.541	64.07
859.836	63.97
860.131	63.81
860.426	63.72
860.72	63.79
861.015	63.85
861.31	64.19
861.604	63.94
861.899	64.2
862.193	64.08
862.487	63.75
862.782	63.27
863.076	62.82
863.37	62.2
863.664	62.22
863.959	62.09
864.253	62
864.547	61.57
864.841	61.58
865.135	61.88
865.428	61.7
865.722	61.23
866.016	61.36
866.31	60.67
866.603	60.58
866.897	60.12
867.19	59.85
867.484	60.34
867.777	61.1
868.07	60.14
868.364	59.8
868.657	59.8
868.95	60.38
869.243	60.61
869.536	61.36
869.829	60.86
870.122	60.05
870.415	59.54
870.708	60.61
871	59.85
871.293	59.45
871.586	59.37
871.878	59.84
872.171	59.9
872.463	60.04
872.756	59.24
873.048	59.5
873.341	59.36
873.633	58.5
873.925	57.53
874.217	58.46
874.509	59.03
874.801	59.6
875.093	59.19
875.385	59.15
875.677	59.15
875.969	59.3
