Data from Anodorhynchus_glaucus_45_25_head_Reflection_3.txt Node
Date: Wed Mar 17 16:36:23 GMT-03:00 2021
User: Darío
Spectrometer: USB2E3644
Trigger mode: 4
Integration Time (sec): 2.480000E-1
Scans to average: 10
Electric dark correction enabled: true
Nonlinearity correction enabled: false
Boxcar width: 10
XAxis mode: Wavelengths
Number of Pixels in Spectrum: 2048
>>>>>Begin Spectral Data<<<<<
178.315	-389.32
178.696	-361.9
179.076	-630.25
179.457	-2688.89
179.838	487.04
180.218	287.65
180.599	106.3
180.979	60
181.36	77.47
181.74	111.44
182.121	97.35
182.501	94.81
182.881	85.34
183.262	81.08
183.642	89.37
184.022	108.18
184.402	111.88
184.783	122.99
185.163	134.31
185.543	165.07
185.923	175.84
186.303	175.45
186.683	171.82
187.063	159.54
187.443	149.64
187.823	139.54
188.203	132.55
188.583	127.84
188.963	127.88
189.343	128.46
189.723	125.11
190.102	123.46
190.482	122.18
190.862	122.44
191.242	121.91
191.621	119.3
192.001	117.19
192.38	119.33
192.76	121.63
193.14	120.22
193.519	119.7
193.898	118.93
194.278	115.91
194.657	116.04
195.037	116.19
195.416	115.24
195.795	112.87
196.175	112.42
196.554	109.71
196.933	109
197.312	108.53
197.692	108.5
198.071	110.13
198.45	110.34
198.829	109.58
199.208	109.15
199.587	107.97
199.966	108.3
200.345	106.36
200.724	104.64
201.103	103.88
201.482	102.86
201.86	102.48
202.239	103.23
202.618	104.15
202.997	104.44
203.375	104.17
203.754	106.38
204.133	105.84
204.511	107.55
204.89	109.12
205.269	110.36
205.647	111.12
206.026	109.74
206.404	111.01
206.782	112.9
207.161	112.28
207.539	113.91
207.918	114.79
208.296	115.38
208.674	115.84
209.052	117.11
209.431	115.38
209.809	115.65
210.187	114.16
210.565	112.23
210.943	111.64
211.321	113.88
211.699	115.95
212.077	118.67
212.455	120.76
212.833	120.21
213.211	120.92
213.589	126.02
213.967	130.36
214.345	132.92
214.722	137.49
215.1	141.37
215.478	141.99
215.855	140.75
216.233	145.34
216.611	150.79
216.988	156.09
217.366	165.77
217.743	167.6
218.121	166.72
218.498	166.29
218.876	169.2
219.253	162.7
219.631	150.79
220.008	146.47
220.385	144.71
220.762	140.01
221.14	140.65
221.517	137.14
221.894	137.57
222.271	133.97
222.648	128.28
223.025	130.44
223.402	132.43
223.78	135.02
224.157	132.13
224.533	130.32
224.91	129.22
225.287	133.2
225.664	140.56
226.041	146.54
226.418	148.25
226.795	152.69
227.171	155.57
227.548	160.6
227.925	158.21
228.301	155.24
228.678	156.29
229.055	155.86
229.431	150.45
229.808	152.3
230.184	159.59
230.561	166.36
230.937	167.97
231.313	167.43
231.69	164.77
232.066	167.63
232.442	168.99
232.819	169.71
233.195	166.31
233.571	154.5
233.947	149.82
234.323	151.69
234.699	149.29
235.075	148.78
235.451	144.91
235.827	149.83
236.203	154.5
236.579	160.96
236.955	169.55
237.331	182.7
237.707	192.07
238.083	198.75
238.459	219.93
238.834	270.5
239.21	362.74
239.586	525.34
239.961	592.12
240.337	668.47
240.713	839.46
241.088	1113.14
241.464	2268.59
241.839	-7360.42
242.215	-1443.5
242.59	-629.3
242.965	-319.39
243.341	-165.35
243.716	-116.7
244.091	-92.33
244.467	-79.09
244.842	-74.09
245.217	-72.55
245.592	-72.25
245.967	-71.68
246.343	-69.39
246.718	-68.98
247.093	-69.43
247.468	-68.39
247.843	-66.54
248.218	-63.8
248.593	-60.94
248.967	-57.22
249.342	-55.17
249.717	-54.06
250.092	-53.5
250.467	-55.56
250.841	-58.74
251.216	-67.54
251.591	-75.25
251.965	-82.32
252.34	-90.98
252.714	-96.22
253.089	-97.19
253.463	-95.35
253.838	-90.74
254.212	-87.19
254.587	-79.52
254.961	-72.09
255.335	-61.32
255.71	-51.5
256.084	-41.47
256.458	-33.51
256.832	-28.43
257.206	-24.62
257.581	-23.79
257.955	-23.54
258.329	-21.92
258.703	-19.81
259.077	-19.28
259.451	-18.73
259.825	-17.98
260.199	-17.18
260.572	-16.34
260.946	-16.01
261.32	-16.15
261.694	-16.94
262.068	-16.83
262.441	-16.95
262.815	-16.83
263.189	-16.83
263.562	-16.84
263.936	-18.54
264.309	-20.12
264.683	-22.16
265.056	-23.67
265.43	-23.16
265.803	-21.85
266.176	-22.23
266.55	-22.38
266.923	-21.58
267.296	-21.12
267.67	-21.13
268.043	-20.06
268.416	-19.35
268.789	-18.37
269.162	-16.46
269.535	-13.96
269.908	-12.98
270.281	-13.43
270.654	-13.15
271.027	-13.72
271.4	-14.25
271.773	-14.14
272.146	-13.95
272.519	-13.86
272.891	-13.9
273.264	-13.54
273.637	-13.55
274.01	-13.08
274.382	-12.75
274.755	-12.64
275.127	-12.73
275.5	-13.22
275.872	-14.07
276.245	-14.31
276.617	-14.62
276.99	-16.02
277.362	-16.73
277.734	-16.89
278.107	-16.02
278.479	-15.47
278.851	-14.87
279.223	-13.69
279.596	-12.67
279.968	-12.57
280.34	-12.06
280.712	-11.73
281.084	-11.67
281.456	-11.19
281.828	-10.94
282.2	-10.67
282.572	-10.26
282.944	-9.86
283.315	-9.44
283.687	-9.12
284.059	-8.65
284.431	-8.13
284.802	-7.31
285.174	-7.04
285.546	-6.99
285.917	-7.08
286.289	-7.49
286.66	-7.33
287.032	-7.43
287.403	-7.67
287.775	-7.65
288.146	-7.97
288.518	-8.23
288.889	-8.23
289.26	-8.5
289.632	-8.78
290.003	-8.84
290.374	-9.02
290.745	-9.34
291.116	-9.5
291.487	-9.41
291.858	-9.58
292.229	-9.36
292.6	-9.06
292.971	-8.63
293.342	-8.23
293.713	-7.74
294.084	-7.17
294.455	-7.17
294.826	-7.23
295.196	-7.1
295.567	-6.84
295.938	-6.27
296.308	-5.76
296.679	-5.63
297.05	-5.67
297.42	-5.17
297.791	-4.89
298.161	-4.79
298.532	-4.4
298.902	-4.1
299.272	-3.99
299.643	-3.91
300.013	-4.27
300.383	-4.34
300.754	-4.65
301.124	-4.82
301.494	-5.07
301.864	-5.17
302.234	-4.85
302.604	-4.58
302.974	-4.42
303.344	-4.65
303.714	-4.89
304.084	-4.91
304.454	-4.61
304.824	-4.38
305.194	-4.24
305.563	-4.17
305.933	-3.83
306.303	-3.67
306.673	-3.86
307.042	-3.55
307.412	-3.37
307.781	-3.06
308.151	-3.03
308.521	-2.77
308.89	-2.69
309.259	-2.4
309.629	-2.27
309.998	-2.3
310.368	-2.45
310.737	-2.39
311.106	-2.09
311.475	-1.77
311.845	-1.7
312.214	-1.91
312.583	-1.87
312.952	-1.92
313.321	-1.97
313.69	-1.78
314.059	-1.69
314.428	-1.37
314.797	-1.37
315.166	-1.37
315.535	-1.21
315.904	-1.06
316.272	-0.97
316.641	-0.77
317.01	-0.65
317.379	-0.37
317.747	-0.31
318.116	0.06
318.484	0.12
318.853	0.23
319.221	0.31
319.59	0.54
319.958	0.72
320.327	1.03
320.695	1.48
321.063	1.6
321.432	1.35
321.8	1.25
322.168	1.15
322.536	1.18
322.905	1.13
323.273	1.13
323.641	1.09
324.009	1
324.377	1.08
324.745	1.14
325.113	0.86
325.481	0.82
325.849	0.76
326.216	0.7
326.584	0.64
326.952	0.51
327.32	0.45
327.687	0.52
328.055	0.44
328.423	0.16
328.79	0.11
329.158	0.3
329.525	0.44
329.893	0.56
330.26	0.43
330.628	0.52
330.995	0.45
331.362	0.48
331.73	0.68
332.097	0.65
332.464	0.65
332.831	0.86
333.199	1.1
333.566	1.32
333.933	1.45
334.3	1.51
334.667	1.63
335.034	1.83
335.401	2.01
335.768	2.08
336.135	2.1
336.502	2.21
336.868	2.17
337.235	2.2
337.602	2.3
337.969	2.6
338.335	2.75
338.702	2.86
339.069	2.96
339.435	2.92
339.802	2.96
340.168	2.94
340.535	2.85
340.901	2.71
341.267	2.61
341.634	2.63
342	2.67
342.366	2.59
342.733	2.49
343.099	2.38
343.465	2.42
343.831	2.59
344.197	2.65
344.563	2.66
344.929	2.59
345.295	2.65
345.661	2.64
346.027	2.68
346.393	2.77
346.759	2.81
347.125	2.9
347.491	3.02
347.856	3.07
348.222	3.21
348.588	3.32
348.953	3.34
349.319	3.44
349.684	3.56
350.05	3.65
350.415	3.66
350.781	3.75
351.146	3.79
351.512	3.77
351.877	3.81
352.242	3.91
352.608	4.04
352.973	4.09
353.338	4.16
353.703	4.16
354.068	4.08
354.433	4.08
354.798	4.1
355.164	4.05
355.528	4.06
355.893	3.98
356.258	3.93
356.623	3.97
356.988	4.01
357.353	3.94
357.718	4.02
358.082	4.08
358.447	4.1
358.812	4.1
359.176	4.21
359.541	4.17
359.905	4.12
360.27	4.13
360.634	4.13
360.999	4.13
361.363	4.14
361.728	4.29
362.092	4.37
362.456	4.33
362.821	4.45
363.185	4.52
363.549	4.67
363.913	4.78
364.277	4.91
364.641	4.93
365.005	4.98
365.369	5.01
365.733	5.05
366.097	5.11
366.461	5.2
366.825	5.25
367.189	5.37
367.553	5.51
367.916	5.67
368.28	5.76
368.644	5.8
369.007	5.93
369.371	5.98
369.734	6.04
370.098	6.16
370.461	6.28
370.825	6.36
371.188	6.41
371.552	6.5
371.915	6.56
372.278	6.69
372.642	6.8
373.005	6.89
373.368	6.95
373.731	7.04
374.094	7.08
374.457	7.07
374.82	7.13
375.183	7.17
375.546	7.22
375.909	7.29
376.272	7.35
376.635	7.41
376.998	7.46
377.361	7.53
377.723	7.61
378.086	7.6
378.449	7.65
378.811	7.72
379.174	7.73
379.537	7.7
379.899	7.72
380.262	7.81
380.624	7.85
380.987	7.89
381.349	7.94
381.711	8
382.074	8.07
382.436	8.11
382.798	8.31
383.16	8.22
383.522	8.24
383.884	8.26
384.247	8.26
384.609	8.31
384.971	8.31
385.333	8.33
385.695	8.36
386.056	8.4
386.418	8.4
386.78	8.47
387.142	8.49
387.504	8.41
387.865	8.35
388.227	8.34
388.589	8.39
388.95	8.38
389.312	8.38
389.673	8.4
390.035	8.38
390.396	8.26
390.758	8.32
391.119	8.32
391.48	8.31
391.842	8.3
392.203	8.23
392.564	8.25
392.925	8.26
393.286	8.24
393.648	8.25
394.009	8.25
394.37	8.22
394.731	8.26
395.092	8.33
395.452	8.36
395.813	8.36
396.174	8.3
396.535	8.3
396.896	8.29
397.257	8.29
397.617	8.31
397.978	8.34
398.338	8.32
398.699	8.34
399.06	8.4
399.42	8.38
399.781	8.42
400.141	8.42
400.501	8.41
400.862	8.42
401.222	8.36
401.582	8.38
401.943	8.38
402.303	8.4
402.663	8.41
403.023	8.42
403.383	8.44
403.743	8.48
404.103	8.51
404.463	8.57
404.823	8.59
405.183	8.6
405.543	8.59
405.903	8.62
406.262	8.61
406.622	8.57
406.982	8.57
407.342	8.59
407.701	8.57
408.061	8.57
408.42	8.6
408.78	8.61
409.139	8.59
409.499	8.59
409.858	8.58
410.217	8.57
410.577	8.52
410.936	8.52
411.295	8.51
411.655	8.46
412.014	8.41
412.373	8.4
412.732	8.36
413.091	8.31
413.45	8.27
413.809	8.23
414.168	8.17
414.527	8.12
414.886	8.07
415.245	8.01
415.603	7.96
415.962	7.89
416.321	7.88
416.679	7.83
417.038	7.78
417.397	7.71
417.755	7.64
418.114	7.63
418.472	7.58
418.831	7.56
419.189	7.55
419.547	7.52
419.906	7.49
420.264	7.46
420.622	7.45
420.981	7.44
421.339	7.42
421.697	7.42
422.055	7.43
422.413	7.43
422.771	7.43
423.129	7.45
423.487	7.48
423.845	7.49
424.203	7.51
424.56	7.55
424.918	7.58
425.276	7.63
425.634	7.65
425.991	7.69
426.349	7.73
426.707	7.76
427.064	7.79
427.422	7.81
427.779	7.85
428.137	7.89
428.494	7.94
428.851	7.96
429.209	7.99
429.566	7.98
429.923	7.98
430.28	7.98
430.637	8
430.995	7.96
431.352	7.93
431.709	7.92
432.066	7.92
432.423	7.91
432.78	7.91
433.137	7.94
433.493	7.92
433.85	7.94
434.207	7.85
434.564	7.84
434.92	7.84
435.277	7.81
435.634	7.81
435.99	7.75
436.347	7.74
436.703	7.74
437.06	7.72
437.416	7.73
437.773	7.69
438.129	7.65
438.485	7.69
438.841	7.68
439.198	7.66
439.554	7.64
439.91	7.62
440.266	7.6
440.622	7.58
440.978	7.55
441.334	7.5
441.69	7.53
442.046	7.51
442.402	7.48
442.758	7.45
443.113	7.41
443.469	7.41
443.825	7.38
444.181	7.36
444.536	7.37
444.892	7.36
445.247	7.4
445.603	7.42
445.958	7.41
446.314	7.42
446.669	7.45
447.025	7.46
447.38	7.47
447.735	7.49
448.09	7.49
448.446	7.51
448.801	7.52
449.156	7.53
449.511	7.55
449.866	7.59
450.221	7.63
450.576	7.67
450.931	7.72
451.286	7.78
451.641	7.8
451.995	7.83
452.35	7.86
452.705	7.86
453.06	7.84
453.414	7.83
453.769	7.8
454.123	7.79
454.478	7.77
454.832	7.79
455.187	7.76
455.541	7.76
455.896	7.7
456.25	7.68
456.604	7.66
456.958	7.64
457.313	7.62
457.667	7.63
458.021	7.64
458.375	7.64
458.729	7.66
459.083	7.66
459.437	7.67
459.791	7.65
460.145	7.67
460.499	7.67
460.852	7.68
461.206	7.72
461.56	7.71
461.914	7.72
462.267	7.7
462.621	7.72
462.974	7.74
463.328	7.78
463.681	7.82
464.035	7.85
464.388	7.89
464.742	7.91
465.095	7.94
465.448	7.96
465.801	7.93
466.155	7.92
466.508	7.93
466.861	7.93
467.214	7.93
467.567	7.92
467.92	7.92
468.273	7.92
468.626	7.91
468.979	7.93
469.332	7.93
469.684	7.94
470.037	7.96
470.39	7.96
470.743	7.97
471.095	7.98
471.448	8
471.8	8
472.153	8.01
472.505	8.01
472.858	7.99
473.21	8.04
473.562	8.06
473.915	8.08
474.267	8.08
474.619	8.09
474.971	8.08
475.324	8.1
475.676	8.14
476.028	8.11
476.38	8.11
476.732	8.1
477.084	8.11
477.436	8.11
477.787	8.1
478.139	8.1
478.491	8.12
478.843	8.11
479.195	8.12
479.546	8.06
479.898	8.04
480.249	8
480.601	7.94
480.952	7.9
481.304	7.88
481.655	7.87
482.007	7.85
482.358	7.86
482.709	7.86
483.061	7.84
483.412	7.86
483.763	7.86
484.114	7.87
484.465	7.88
484.816	7.87
485.167	7.89
485.518	7.89
485.869	7.88
486.22	7.89
486.571	7.89
486.922	7.91
487.272	7.93
487.623	7.96
487.974	8
488.324	8.04
488.675	8.07
489.025	8.08
489.376	8.12
489.726	8.14
490.077	8.16
490.427	8.18
490.778	8.2
491.128	8.24
491.478	8.27
491.828	8.31
492.179	8.34
492.529	8.37
492.879	8.39
493.229	8.42
493.579	8.43
493.929	8.44
494.279	8.47
494.629	8.47
494.979	8.49
495.328	8.53
495.678	8.57
496.028	8.61
496.378	8.67
496.727	8.71
497.077	8.73
497.426	8.77
497.776	8.77
498.125	8.78
498.475	8.78
498.824	8.79
499.174	8.78
499.523	8.8
499.872	8.81
500.221	8.82
500.571	8.84
500.92	8.87
501.269	8.91
501.618	8.92
501.967	8.94
502.316	8.96
502.665	8.99
503.014	9.02
503.363	9.06
503.711	9.07
504.06	9.08
504.409	9.1
504.758	9.09
505.106	9.12
505.455	9.15
505.803	9.17
506.152	9.19
506.5	9.21
506.849	9.23
507.197	9.26
507.546	9.3
507.894	9.31
508.242	9.32
508.59	9.33
508.939	9.36
509.287	9.39
509.635	9.41
509.983	9.4
510.331	9.41
510.679	9.42
511.027	9.43
511.375	9.45
511.723	9.49
512.07	9.53
512.418	9.57
512.766	9.59
513.114	9.63
513.461	9.65
513.809	9.67
514.156	9.67
514.504	9.7
514.851	9.7
515.199	9.71
515.546	9.73
515.893	9.75
516.241	9.78
516.588	9.77
516.935	9.78
517.282	9.81
517.63	9.85
517.977	9.88
518.324	9.89
518.671	9.91
519.018	9.92
519.365	9.93
519.711	9.95
520.058	9.96
520.405	9.96
520.752	9.97
521.099	10.01
521.445	10.07
521.792	10.07
522.138	10.08
522.485	10.11
522.832	10.15
523.178	10.18
523.524	10.21
523.871	10.25
524.217	10.27
524.563	10.27
524.91	10.26
525.256	10.25
525.602	10.25
525.948	10.25
526.294	10.26
526.64	10.24
526.986	10.24
527.332	10.24
527.678	10.25
528.024	10.25
528.37	10.28
528.716	10.26
529.061	10.28
529.407	10.31
529.753	10.33
530.098	10.33
530.444	10.35
530.789	10.35
531.135	10.36
531.48	10.38
531.826	10.41
532.171	10.46
532.516	10.5
532.862	10.54
533.207	10.57
533.552	10.6
533.897	10.65
534.242	10.69
534.587	10.74
534.932	10.8
535.277	10.82
535.622	10.81
535.967	10.86
536.312	10.89
536.657	10.93
537.001	10.98
537.346	11.03
537.691	11.06
538.035	11.09
538.38	11.11
538.724	11.12
539.069	11.13
539.413	11.13
539.758	11.14
540.102	11.19
540.446	11.2
540.791	11.23
541.135	11.25
541.479	11.27
541.823	11.26
542.167	11.25
542.512	11.3
542.856	11.3
543.2	11.3
543.543	11.3
543.887	11.31
544.231	11.34
544.575	11.36
544.919	11.37
545.262	11.44
545.606	11.48
545.95	11.53
546.293	11.58
546.637	11.59
546.98	11.66
547.324	11.65
547.667	11.74
548.011	11.75
548.354	11.79
548.697	11.79
549.04	11.85
549.384	11.85
549.727	11.83
550.07	11.9
550.413	11.92
550.756	11.97
551.099	11.99
551.442	11.98
551.785	12.04
552.128	12.06
552.47	12.04
552.813	12.04
553.156	12.02
553.499	12.01
553.841	12.01
554.184	11.99
554.526	12
554.869	11.96
555.211	11.98
555.554	11.96
555.896	11.96
556.238	11.93
556.581	11.94
556.923	11.94
557.265	11.95
557.607	11.94
557.949	12
558.291	12.01
558.633	12.01
558.975	11.96
559.317	11.99
559.659	12
560.001	12.02
560.343	12.03
560.685	12.05
561.026	12.08
561.368	12.1
561.71	12.11
562.051	12.14
562.393	12.16
562.734	12.14
563.076	12.15
563.417	12.17
563.759	12.19
564.1	12.19
564.441	12.22
564.782	12.24
565.124	12.19
565.465	12.2
565.806	12.2
566.147	12.21
566.488	12.22
566.829	12.26
567.17	12.26
567.511	12.25
567.851	12.27
568.192	12.24
568.533	12.23
568.874	12.26
569.214	12.25
569.555	12.23
569.895	12.29
570.236	12.33
570.576	12.34
570.917	12.35
571.257	12.36
571.598	12.34
571.938	12.32
572.278	12.32
572.618	12.33
572.959	12.36
573.299	12.35
573.639	12.33
573.979	12.28
574.319	12.28
574.659	12.29
574.999	12.28
575.339	12.3
575.678	12.31
576.018	12.28
576.358	12.25
576.698	12.26
577.037	12.24
577.377	12.21
577.716	12.2
578.056	12.2
578.395	12.18
578.735	12.16
579.074	12.17
579.413	12.16
579.753	12.15
580.092	12.13
580.431	12.13
580.77	12.16
581.109	12.17
581.448	12.17
581.787	12.17
582.126	12.16
582.465	12.14
582.804	12.13
583.143	12.16
583.482	12.14
583.82	12.09
584.159	12.1
584.498	12.1
584.836	12.11
585.175	12.08
585.514	12.09
585.852	12.07
586.19	12.07
586.529	12.05
586.867	12.04
587.205	12.04
587.544	12.1
587.882	12.08
588.22	12.05
588.558	12.06
588.896	12.06
589.234	12.05
589.572	12.08
589.91	12.08
590.248	12.05
590.586	12.09
590.924	12.1
591.262	12.09
591.599	12.09
591.937	12.09
592.275	12.09
592.612	12.11
592.95	12.11
593.287	12.14
593.625	12.12
593.962	12.12
594.299	12.11
594.637	12.05
594.974	12.04
595.311	12.01
595.648	11.98
595.985	11.99
596.322	11.99
596.659	12.02
596.996	11.97
597.333	11.94
597.67	11.92
598.007	11.92
598.344	11.91
598.681	11.96
599.017	11.92
599.354	11.87
599.691	11.83
600.027	11.88
600.364	11.8
600.7	11.82
601.037	11.81
601.373	11.79
601.71	11.78
602.046	11.79
602.382	11.8
602.718	11.82
603.054	11.77
603.391	11.75
603.727	11.67
604.063	11.72
604.399	11.71
604.735	11.69
605.071	11.65
605.406	11.63
605.742	11.58
606.078	11.61
606.414	11.6
606.749	11.57
607.085	11.51
607.421	11.51
607.756	11.47
608.092	11.43
608.427	11.38
608.762	11.35
609.098	11.29
609.433	11.25
609.768	11.2
610.104	11.17
610.439	11.12
610.774	11.12
611.109	11.02
611.444	11.01
611.779	10.97
612.114	10.93
612.449	10.9
612.784	10.83
613.118	10.75
613.453	10.72
613.788	10.68
614.123	10.62
614.457	10.58
614.792	10.54
615.126	10.5
615.461	10.47
615.795	10.42
616.13	10.42
616.464	10.42
616.798	10.37
617.132	10.34
617.467	10.33
617.801	10.29
618.135	10.32
618.469	10.25
618.803	10.2
619.137	10.19
619.471	10.14
619.805	10.09
620.139	10.05
620.472	10.04
620.806	10.04
621.14	10.02
621.473	9.99
621.807	9.95
622.141	9.94
622.474	9.91
622.808	9.89
623.141	9.82
623.474	9.75
623.808	9.74
624.141	9.73
624.474	9.72
624.807	9.7
625.141	9.63
625.474	9.66
625.807	9.69
626.14	9.66
626.473	9.63
626.806	9.63
627.138	9.62
627.471	9.57
627.804	9.52
628.137	9.5
628.469	9.46
628.802	9.43
629.135	9.38
629.467	9.37
629.8	9.36
630.132	9.33
630.465	9.34
630.797	9.29
631.129	9.23
631.461	9.2
631.794	9.2
632.126	9.14
632.458	9.08
632.79	9.05
633.122	9.03
633.454	8.98
633.786	8.92
634.118	8.88
634.45	8.89
634.781	8.89
635.113	8.84
635.445	8.8
635.777	8.78
636.108	8.75
636.44	8.7
636.771	8.67
637.103	8.61
637.434	8.54
637.765	8.52
638.097	8.54
638.428	8.47
638.759	8.38
639.09	8.36
639.422	8.35
639.753	8.29
640.084	8.27
640.415	8.26
640.746	8.24
641.077	8.19
641.407	8.12
641.738	8.04
642.069	8.03
642.4	8.01
642.73	8.01
643.061	7.98
643.392	7.96
643.722	7.89
644.053	7.89
644.383	7.88
644.713	7.88
645.044	7.76
645.374	7.74
645.704	7.69
646.034	7.71
646.365	7.69
646.695	7.73
647.025	7.76
647.355	7.73
647.685	7.68
648.015	7.68
648.344	7.7
648.674	7.71
649.004	7.67
649.334	7.64
649.663	7.6
649.993	7.6
650.323	7.58
650.652	7.59
650.982	7.6
651.311	7.58
651.64	7.53
651.97	7.55
652.299	7.54
652.628	7.56
652.958	7.51
653.287	7.51
653.616	7.4
653.945	7.29
654.274	7.27
654.603	7.26
654.932	7.24
655.261	7.19
655.589	7.15
655.918	7.13
656.247	7.14
656.576	7.15
656.904	7.15
657.233	7.18
657.561	7.16
657.89	7.1
658.218	7.1
658.547	7.12
658.875	7.12
659.203	7.11
659.532	7.1
659.86	7.09
660.188	7.08
660.516	7.12
660.844	7.11
661.172	7.11
661.5	7.1
661.828	7.09
662.156	7.05
662.484	7.06
662.811	7.02
663.139	6.98
663.467	6.95
663.794	6.91
664.122	6.82
664.45	6.78
664.777	6.84
665.104	6.88
665.432	6.83
665.759	6.8
666.086	6.8
666.414	6.79
666.741	6.77
667.068	6.74
667.395	6.7
667.722	6.68
668.049	6.65
668.376	6.6
668.703	6.54
669.03	6.53
669.357	6.49
669.683	6.45
670.01	6.38
670.337	6.33
670.663	6.28
670.99	6.21
671.317	6.18
671.643	6.1
671.969	5.97
672.296	5.99
672.622	5.92
672.948	5.88
673.275	5.89
673.601	5.93
673.927	5.93
674.253	5.94
674.579	5.98
674.905	5.99
675.231	6
675.557	6.03
675.883	6.07
676.209	6.12
676.534	6.19
676.86	6.26
677.186	6.22
677.511	6.27
677.837	6.37
678.162	6.43
678.488	6.45
678.813	6.49
679.139	6.49
679.464	6.56
679.789	6.57
680.114	6.54
680.44	6.44
680.765	6.41
681.09	6.4
681.415	6.36
681.74	6.38
682.065	6.42
682.39	6.46
682.714	6.49
683.039	6.46
683.364	6.41
683.689	6.36
684.013	6.39
684.338	6.35
684.662	6.32
684.987	6.3
685.311	6.33
685.636	6.34
685.96	6.31
686.284	6.25
686.608	6.19
686.933	6.18
687.257	6.28
687.581	6.28
687.905	6.27
688.229	6.28
688.553	6.23
688.877	6.19
689.201	6.16
689.524	6.17
689.848	6.13
690.172	6.18
690.496	6.17
690.819	6.16
691.143	6.2
691.466	6.14
691.79	6.05
692.113	6.04
692.436	6
692.76	6.06
693.083	6.09
693.406	6.14
693.729	6.1
694.053	6.03
694.376	6.04
694.699	6.03
695.022	6.05
695.344	6.04
695.667	6.08
695.99	6.07
696.313	6.02
696.636	6.1
696.958	6.16
697.281	6.26
697.604	6.33
697.926	6.34
698.249	6.46
698.571	6.5
698.893	6.49
699.216	6.5
699.538	6.47
699.86	6.44
700.182	6.4
700.504	6.41
700.827	6.43
701.149	6.39
701.471	6.42
701.793	6.42
702.114	6.5
702.436	6.5
702.758	6.54
703.08	6.51
703.401	6.41
703.723	6.35
704.045	6.3
704.366	6.27
704.688	6.22
705.009	6.11
705.331	6.13
705.652	6.14
705.973	6.09
706.294	6.08
706.616	6.15
706.937	6.21
707.258	6.28
707.579	6.29
707.9	6.3
708.221	6.27
708.542	6.33
708.863	6.34
709.183	6.39
709.504	6.38
709.825	6.42
710.145	6.49
710.466	6.49
710.787	6.48
711.107	6.44
711.427	6.43
711.748	6.46
712.068	6.48
712.388	6.44
712.709	6.47
713.029	6.51
713.349	6.49
713.669	6.47
713.989	6.51
714.309	6.57
714.629	6.66
714.949	6.67
715.269	6.69
715.589	6.67
715.908	6.64
716.228	6.7
716.548	6.79
716.867	6.8
717.187	6.82
717.506	6.84
717.826	6.96
718.145	7.05
718.465	7.07
718.784	7.13
719.103	7.26
719.422	7.42
719.741	7.5
720.061	7.64
720.38	7.77
720.699	7.83
721.018	7.9
721.336	7.93
721.655	8.07
721.974	8.18
722.293	8.36
722.612	8.56
722.93	8.63
723.249	8.68
723.567	8.85
723.886	9.04
724.204	9.19
724.523	9.3
724.841	9.36
725.159	9.48
725.477	9.54
725.796	9.6
726.114	9.68
726.432	9.72
726.75	9.8
727.068	9.88
727.386	9.98
727.704	10.11
728.022	10.25
728.339	10.39
728.657	10.44
728.975	10.44
729.292	10.4
729.61	10.45
729.928	10.54
730.245	10.55
730.562	10.55
730.88	10.58
731.197	10.69
731.514	10.83
731.832	10.94
732.149	11.06
732.466	11.2
732.783	11.31
733.1	11.41
733.417	11.43
733.734	11.49
734.051	11.48
734.368	11.49
734.684	11.57
735.001	11.63
735.318	11.61
735.634	11.61
735.951	11.67
736.268	11.77
736.584	11.84
736.9	11.96
737.217	12.04
737.533	12.19
737.849	12.19
738.166	12.3
738.482	12.36
738.798	12.43
739.114	12.51
739.43	12.61
739.746	12.67
740.062	12.77
740.378	12.81
740.693	12.96
741.009	13.13
741.325	13.19
741.641	13.3
741.956	13.38
742.272	13.57
742.587	13.81
742.903	13.96
743.218	14.05
743.533	14.1
743.849	14.36
744.164	14.52
744.479	14.58
744.794	14.45
745.109	14.55
745.424	14.66
745.739	14.71
746.054	14.58
746.369	14.64
746.684	14.76
746.999	14.98
747.313	15.14
747.628	15.14
747.943	15.12
748.257	15.16
748.572	15.28
748.886	15.33
749.201	15.38
749.515	15.4
749.829	15.41
750.144	15.55
750.458	15.46
750.772	15.32
751.086	15.41
751.4	15.59
751.714	15.61
752.028	15.54
752.342	15.52
752.656	15.79
752.97	16.02
753.284	16.09
753.597	16.12
753.911	16.16
754.225	16.31
754.538	16.4
754.852	16.48
755.165	16.54
755.478	16.59
755.792	16.58
756.105	16.67
756.418	16.91
756.731	16.98
757.045	17.08
757.358	17.22
757.671	17.22
757.984	17.28
758.297	17.41
758.609	17.58
758.922	17.64
759.235	17.48
759.548	17.36
759.86	17.19
760.173	16.96
760.486	16.62
760.798	16.29
761.111	16.14
761.423	15.85
761.735	15.85
762.048	15.81
762.36	15.74
762.672	15.68
762.984	15.6
763.296	15.58
763.608	15.71
763.92	15.78
764.232	15.92
764.544	15.94
764.856	15.99
765.168	16.02
765.48	16.09
765.791	16.17
766.103	16.22
766.414	16.47
766.726	16.75
767.037	17.16
767.349	17.59
767.66	17.98
767.972	18.44
768.283	18.86
768.594	19.22
768.905	19.56
769.216	19.93
769.527	20.14
769.838	20.45
770.149	20.58
770.46	20.83
770.771	20.94
771.082	21.24
771.393	21.34
771.703	21.56
772.014	21.7
772.324	21.87
772.635	22.15
772.945	22.35
773.256	22.55
773.566	22.71
773.877	22.89
774.187	23.06
774.497	23.19
774.807	23.21
775.117	23.09
775.427	23.2
775.737	23.29
776.047	23.57
776.357	23.61
776.667	23.64
776.977	23.71
777.287	23.84
777.596	23.79
777.906	23.83
778.216	24.02
778.525	24.1
778.835	24.27
779.144	24.05
779.453	24.03
779.763	24.02
780.072	24.13
780.381	24.41
780.69	24.68
781	24.77
781.309	25.04
781.618	25.41
781.927	25.51
782.235	25.68
782.544	25.82
782.853	26.23
783.162	26.64
783.471	26.85
783.779	27.1
784.088	27.32
784.396	27.54
784.705	27.55
785.013	27.71
785.322	27.8
785.63	28.07
785.938	28.12
786.246	28.06
786.554	27.99
786.863	27.7
787.171	27.58
787.479	27.79
787.787	27.73
788.094	27.7
788.402	27.73
788.71	27.84
789.018	27.87
789.326	27.55
789.633	27.28
789.941	27.19
790.248	27.02
790.556	27.07
790.863	27.27
791.171	27.28
791.478	27.37
791.785	27.68
792.092	27.89
792.399	27.98
792.707	28.2
793.014	28.29
793.321	28.51
793.628	28.6
793.934	28.45
794.241	28.25
794.548	28.23
794.855	28.21
795.161	27.96
795.468	27.86
795.775	28.1
796.081	28.12
796.388	28.07
796.694	28.42
797	28.57
797.307	28.66
797.613	28.81
797.919	28.75
798.225	28.63
798.531	28.64
798.837	28.62
799.143	28.56
799.449	28.7
799.755	28.78
800.061	28.83
800.367	29.31
800.672	29.63
800.978	29.97
801.284	30.18
801.589	30.35
801.895	30.41
802.2	30.32
802.506	30.57
802.811	30.87
803.116	30.79
803.421	30.79
803.727	30.61
804.032	30.75
804.337	31.03
804.642	31.09
804.947	30.96
805.252	31.22
805.556	31.65
805.861	31.63
806.166	31.69
806.471	31.85
806.775	31.61
807.08	31.58
807.384	31.5
807.689	31.53
807.993	31.56
808.298	31.85
808.602	32.05
808.906	32.26
809.211	32.31
809.515	32.16
809.819	32.11
810.123	32.32
810.427	32.2
810.731	32.07
811.035	32.1
811.338	32.62
811.642	32.49
811.946	32.51
812.25	32.88
812.553	33.23
812.857	33.07
813.16	33.2
813.464	33.39
813.767	33.48
814.07	33.6
814.374	33.58
814.677	33.23
814.98	33.07
815.283	32.83
815.586	32.7
815.889	32.82
816.192	32.91
816.495	32.63
816.798	32.37
817.101	32.04
817.404	31.26
817.706	30.46
818.009	29.81
818.312	28.9
818.614	27.48
818.917	25.76
819.219	23.94
819.521	22
819.824	20.11
820.126	18.81
820.428	17.86
820.73	17.35
821.032	16.95
821.334	16.59
821.636	16.32
821.938	16.06
822.24	15.93
822.542	15.83
822.844	15.87
823.145	15.88
823.447	15.9
823.749	15.92
824.05	15.88
824.352	15.87
824.653	15.86
824.955	15.91
825.256	15.98
825.557	16.15
825.858	16.36
826.16	16.82
826.461	17.31
826.762	17.84
827.063	18.34
827.364	19.01
827.665	19.69
827.965	20.3
828.266	20.92
828.567	21.39
828.868	21.81
829.168	21.91
829.469	22.1
829.769	22.24
830.07	22.7
830.37	23.2
830.67	23.63
830.971	24.18
831.271	24.81
831.571	25.32
831.871	25.75
832.171	26.21
832.471	26.29
832.771	26.31
833.071	26.49
833.371	26.41
833.671	26.23
833.971	26.12
834.27	26.21
834.57	26.32
834.869	26.32
835.169	26.34
835.468	26.64
835.768	26.78
836.067	27.05
836.367	27.11
836.666	27.41
836.965	27.93
837.264	28.32
837.563	28.88
837.862	29.7
838.161	30.41
838.46	31.32
838.759	32.2
839.058	33.13
839.356	33.98
839.655	35.22
839.954	35.97
840.252	36.73
840.551	37.33
840.849	37.99
841.148	38.7
841.446	38.95
841.744	39.35
842.043	39.79
842.341	40.15
842.639	40.63
842.937	40.87
843.235	41.54
843.533	42.47
843.831	43.53
844.129	44.62
844.427	45.99
844.724	47.44
845.022	48.64
845.32	50.07
845.617	51.47
845.915	52.28
846.212	53.49
846.51	54.45
846.807	54.56
847.104	54.81
847.402	55.87
847.699	57.1
847.996	57.79
848.293	58.44
848.59	58.88
848.887	59.11
849.184	58.97
849.481	58.67
849.778	58.96
850.074	58.89
850.371	58.77
850.668	58.89
850.964	58.8
851.261	59.9
851.557	60.38
851.854	60.59
852.15	60.94
852.446	60.86
852.743	60.48
853.039	60.96
853.335	61.54
853.631	60.86
853.927	60.39
854.223	60.12
854.519	59.76
854.815	59.57
855.111	59.94
855.406	59.86
855.702	59.68
855.998	59.94
856.293	60.03
856.589	60.12
856.884	60.17
857.18	59.46
857.475	59.08
857.77	59.2
858.066	59.1
858.361	59.21
858.656	60.27
858.951	60.96
859.246	61.27
859.541	61.78
859.836	61.95
860.131	62.43
860.426	62.84
860.72	63.32
861.015	63.93
861.31	63.95
861.604	64.11
861.899	64.15
862.193	63.12
862.487	62.76
862.782	63.5
863.076	63.74
863.37	64.47
863.664	64.11
863.959	63.38
864.253	62.77
864.547	62.16
864.841	61.89
865.135	62.38
865.428	62.6
865.722	62.09
866.016	62.51
866.31	61.66
866.603	61
866.897	60.49
867.19	59.84
867.484	59.7
867.777	60.7
868.07	60.96
868.364	61.83
868.657	62.71
868.95	62.39
869.243	62.17
869.536	62.01
869.829	61.77
870.122	61.89
870.415	62.26
870.708	62.8
871	61.53
871.293	60.18
871.586	59.47
871.878	59.14
872.171	57.78
872.463	57.3
872.756	57.08
873.048	57.7
873.341	57.82
873.633	57.59
873.925	56.82
874.217	56.64
874.509	55.93
874.801	55.07
875.093	54.1
875.385	53.43
875.677	52.85
875.969	53.37
