Data from Anodorhynchus_glaucus_45_25_chest_Reflection_2.txt Node
Date: Wed Mar 17 16:37:08 GMT-03:00 2021
User: Darío
Spectrometer: USB2E3644
Trigger mode: 4
Integration Time (sec): 2.480000E-1
Scans to average: 10
Electric dark correction enabled: true
Nonlinearity correction enabled: false
Boxcar width: 10
XAxis mode: Wavelengths
Number of Pixels in Spectrum: 2048
>>>>>Begin Spectral Data<<<<<
178.315	72.05
178.696	72.48
179.076	84.94
179.457	89.97
179.838	91.47
180.218	107.36
180.599	104.74
180.979	420
181.36	295.58
181.74	155.71
182.121	115.5
182.501	87.35
182.881	85.88
183.262	77.45
183.642	84.53
184.022	95.28
184.402	96.76
184.783	108.54
185.163	111.62
185.543	108.64
185.923	112.49
186.303	113.42
186.683	116.13
187.063	116.52
187.443	116.02
187.823	115.19
188.203	115.76
188.583	114.9
188.963	117.01
189.343	110.81
189.723	111.3
190.102	113.85
190.482	118.32
190.862	124.22
191.242	129.94
191.621	127.62
192.001	124.83
192.38	126.24
192.76	124.99
193.14	123.08
193.519	121.26
193.898	121.83
194.278	119.45
194.657	118.3
195.037	119.12
195.416	122.1
195.795	125.11
196.175	127.16
196.554	128.03
196.933	126.6
197.312	124.27
197.692	125.13
198.071	126.45
198.45	127.39
198.829	125.74
199.208	124.39
199.587	125.27
199.966	125.78
200.345	124.93
200.724	125.99
201.103	127.39
201.482	127.2
201.86	125.52
202.239	124.71
202.618	124.14
202.997	121.57
203.375	117.63
203.754	116.43
204.133	114.28
204.511	115.28
204.89	116.19
205.269	120.46
205.647	121.94
206.026	122.69
206.404	124.55
206.782	127.91
207.161	130.62
207.539	130.77
207.918	131.17
208.296	132.1
208.674	133.8
209.052	135.85
209.431	137.93
209.809	140.49
210.187	145.74
210.565	151.73
210.943	155.7
211.321	158.27
211.699	162.3
212.077	169.18
212.455	168.85
212.833	169.38
213.211	165.95
213.589	161.14
213.967	157.47
214.345	151.2
214.722	147.14
215.1	145.38
215.478	147.89
215.855	146.2
216.233	141.12
216.611	134.83
216.988	136.06
217.366	141.19
217.743	142.7
218.121	139.38
218.498	140.7
218.876	150.29
219.253	157.95
219.631	155.18
220.008	152.73
220.385	150.44
220.762	152.01
221.14	158.97
221.517	171.96
221.894	178.68
222.271	184.48
222.648	194.85
223.025	194.51
223.402	194.45
223.78	197.34
224.157	204.15
224.533	211.86
224.91	207.8
225.287	201.42
225.664	210.16
226.041	224.8
226.418	218.17
226.795	202.93
227.171	200.35
227.548	197.82
227.925	197.88
228.301	195.39
228.678	192.67
229.055	186.95
229.431	179.78
229.808	182.56
230.184	182.99
230.561	170.74
230.937	168.39
231.313	165.39
231.69	162.47
232.066	166.9
232.442	175.31
232.819	182.9
233.195	184.57
233.571	178.26
233.947	176.57
234.323	178.97
234.699	186.16
235.075	189.54
235.451	191.12
235.827	190.5
236.203	190.84
236.579	197.34
236.955	205.31
237.331	226.96
237.707	246.4
238.083	276.58
238.459	349.2
238.834	526.52
239.21	893.73
239.586	1903.02
239.961	3705.83
240.337	-13141.38
240.713	-4879.22
241.088	-2529.53
241.464	-1282.61
241.839	-893.88
242.215	-679.89
242.59	-486.7
242.965	-301.29
243.341	-163.2
243.716	-117.96
244.091	-92.39
244.467	-78.12
244.842	-71.27
245.217	-69.54
245.592	-67.37
245.967	-64.48
246.343	-63.13
246.718	-63.89
247.093	-65.77
247.468	-63.66
247.843	-62.31
248.218	-61.73
248.593	-59.99
248.967	-58.92
249.342	-57.35
249.717	-56.7
250.092	-57.44
250.467	-58.94
250.841	-61.3
251.216	-69.21
251.591	-75.76
251.965	-83.86
252.34	-92.57
252.714	-100.69
253.089	-104.87
253.463	-104.68
253.838	-105.19
254.212	-98.2
254.587	-87.74
254.961	-79.53
255.335	-71.06
255.71	-61.46
256.084	-48.51
256.458	-39.79
256.832	-33.02
257.206	-28.98
257.581	-28.29
257.955	-27.17
258.329	-25.61
258.703	-23.57
259.077	-22.72
259.451	-21.64
259.825	-20.91
260.199	-21.12
260.572	-20.87
260.946	-20.25
261.32	-19.5
261.694	-19
262.068	-18.54
262.441	-18.18
262.815	-17.51
263.189	-17.29
263.562	-16.59
263.936	-18.2
264.309	-19.9
264.683	-21.26
265.056	-21.77
265.43	-20.71
265.803	-19.89
266.176	-20.11
266.55	-21.29
266.923	-20.72
267.296	-20.07
267.67	-20.19
268.043	-19.64
268.416	-19.47
268.789	-19.26
269.162	-18.67
269.535	-17.88
269.908	-16.99
270.281	-16.79
270.654	-16.64
271.027	-17.24
271.4	-18.2
271.773	-18.54
272.146	-18.37
272.519	-18.48
272.891	-18.36
273.264	-17.97
273.637	-17.84
274.01	-17.31
274.382	-16.47
274.755	-16.82
275.127	-17.38
275.5	-17.63
275.872	-17.93
276.245	-17.89
276.617	-17.44
276.99	-18
277.362	-18.15
277.734	-18.73
278.107	-18.39
278.479	-18.34
278.851	-17.43
279.223	-16.79
279.596	-15.84
279.968	-15.67
280.34	-15.22
280.712	-14.87
281.084	-14.72
281.456	-14.52
281.828	-14.42
282.2	-13.8
282.572	-12.71
282.944	-12.09
283.315	-11.85
283.687	-11.54
284.059	-10.93
284.431	-10.55
284.802	-9.73
285.174	-9.15
285.546	-8.62
285.917	-8.61
286.289	-8.42
286.66	-8.19
287.032	-7.86
287.403	-7.43
287.775	-7.1
288.146	-7.03
288.518	-7.26
288.889	-7.5
289.26	-7.5
289.632	-7.46
290.003	-7.68
290.374	-7.93
290.745	-8.1
291.116	-7.8
291.487	-7.41
291.858	-7.35
292.229	-7.01
292.6	-7.01
292.971	-7.09
293.342	-6.92
293.713	-6.6
294.084	-6.24
294.455	-5.93
294.826	-6.04
295.196	-6.49
295.567	-6.57
295.938	-6.2
296.308	-5.82
296.679	-5.26
297.05	-5.16
297.42	-4.83
297.791	-4.5
298.161	-4.39
298.532	-4.07
298.902	-4.13
299.272	-4.27
299.643	-4.47
300.013	-4.98
300.383	-5.06
300.754	-5.11
301.124	-5.16
301.494	-5.23
301.864	-5.39
302.234	-5.62
302.604	-5.45
302.974	-4.85
303.344	-4.69
303.714	-5.18
304.084	-5.63
304.454	-5.89
304.824	-5.67
305.194	-5.66
305.563	-5.87
305.933	-5.86
306.303	-5.91
306.673	-5.84
307.042	-5.5
307.412	-5.12
307.781	-4.69
308.151	-4.46
308.521	-4.27
308.89	-4.3
309.259	-4.35
309.629	-4.34
309.998	-4.15
310.368	-4.1
310.737	-4.34
311.106	-4.39
311.475	-4.18
311.845	-3.84
312.214	-3.72
312.583	-3.72
312.952	-3.44
313.321	-3.12
313.69	-2.76
314.059	-2.51
314.428	-2.26
314.797	-2.25
315.166	-2.44
315.535	-2.38
315.904	-2.36
316.272	-2.22
316.641	-2.17
317.01	-2.26
317.379	-2.09
317.747	-2.12
318.116	-2.08
318.484	-2.16
318.853	-2
319.221	-1.69
319.59	-1.5
319.958	-1.44
320.327	-1.19
320.695	-1.05
321.063	-1.05
321.432	-1.26
321.8	-1.34
322.168	-1.37
322.536	-1.27
322.905	-1.1
323.273	-1.13
323.641	-1.11
324.009	-1.2
324.377	-1.14
324.745	-0.91
325.113	-0.92
325.481	-0.88
325.849	-0.68
326.216	-0.46
326.584	-0.43
326.952	-0.61
327.32	-0.62
327.687	-0.49
328.055	-0.52
328.423	-0.82
328.79	-0.9
329.158	-0.78
329.525	-0.61
329.893	-0.44
330.26	-0.43
330.628	-0.34
330.995	-0.35
331.362	-0.38
331.73	-0.27
332.097	-0.17
332.464	-0.1
332.831	0.08
333.199	0.38
333.566	0.48
333.933	0.53
334.3	0.65
334.667	0.81
335.034	0.91
335.401	1.01
335.768	1.07
336.135	1.26
336.502	1.53
336.868	1.62
337.235	1.67
337.602	1.71
337.969	1.83
338.335	1.91
338.702	2.05
339.069	2.13
339.435	2.05
339.802	2.09
340.168	2.19
340.535	2.21
340.901	2.1
341.267	2.05
341.634	2
342	1.97
342.366	1.95
342.733	1.98
343.099	2.04
343.465	2.12
343.831	2.21
344.197	2.14
344.563	2.06
344.929	1.98
345.295	1.95
345.661	1.95
346.027	1.94
346.393	1.99
346.759	2.07
347.125	2.22
347.491	2.27
347.856	2.35
348.222	2.41
348.588	2.47
348.953	2.51
349.319	2.58
349.684	2.7
350.05	2.73
350.415	2.67
350.781	2.67
351.146	2.72
351.512	2.67
351.877	2.68
352.242	2.8
352.608	2.9
352.973	3.09
353.338	3.21
353.703	3.32
354.068	3.27
354.433	3.19
354.798	3.21
355.164	3.28
355.528	3.28
355.893	3.23
356.258	3.25
356.623	3.29
356.988	3.41
357.353	3.4
357.718	3.46
358.082	3.52
358.447	3.53
358.812	3.51
359.176	3.56
359.541	3.58
359.905	3.57
360.27	3.52
360.634	3.45
360.999	3.39
361.363	3.33
361.728	3.49
362.092	3.66
362.456	3.64
362.821	3.67
363.185	3.76
363.549	3.85
363.913	3.92
364.277	4
364.641	4.02
365.005	4.09
365.369	4.17
365.733	4.19
366.097	4.25
366.461	4.31
366.825	4.36
367.189	4.42
367.553	4.49
367.916	4.67
368.28	4.77
368.644	4.91
369.007	5.08
369.371	5.13
369.734	5.16
370.098	5.28
370.461	5.35
370.825	5.38
371.188	5.44
371.552	5.5
371.915	5.53
372.278	5.62
372.642	5.69
373.005	5.72
373.368	5.77
373.731	5.85
374.094	5.93
374.457	5.99
374.82	6.1
375.183	6.17
375.546	6.2
375.909	6.29
376.272	6.34
376.635	6.41
376.998	6.46
377.361	6.54
377.723	6.62
378.086	6.65
378.449	6.69
378.811	6.76
379.174	6.76
379.537	6.79
379.899	6.79
380.262	6.86
380.624	6.92
380.987	7.02
381.349	7.04
381.711	7.05
382.074	7.07
382.436	7.09
382.798	7.36
383.16	7.32
383.522	7.29
383.884	7.29
384.247	7.32
384.609	7.36
384.971	7.36
385.333	7.35
385.695	7.35
386.056	7.36
386.418	7.33
386.78	7.42
387.142	7.4
387.504	7.34
387.865	7.32
388.227	7.34
388.589	7.39
388.95	7.41
389.312	7.42
389.673	7.49
390.035	7.46
390.396	7.22
390.758	7.24
391.119	7.26
391.48	7.26
391.842	7.2
392.203	7.14
392.564	7.11
392.925	7.11
393.286	7.1
393.648	7.09
394.009	7.1
394.37	7.06
394.731	7.12
395.092	7.18
395.452	7.15
395.813	7.09
396.174	7.02
396.535	7
396.896	6.99
397.257	6.98
397.617	7
397.978	7.05
398.338	7.06
398.699	7.05
399.06	7.06
399.42	7.04
399.781	7.08
400.141	7.08
400.501	7.12
400.862	7.17
401.222	7.17
401.582	7.2
401.943	7.2
402.303	7.21
402.663	7.24
403.023	7.27
403.383	7.32
403.743	7.34
404.103	7.39
404.463	7.44
404.823	7.44
405.183	7.44
405.543	7.44
405.903	7.47
406.262	7.5
406.622	7.49
406.982	7.54
407.342	7.55
407.701	7.56
408.061	7.54
408.42	7.54
408.78	7.55
409.139	7.53
409.499	7.54
409.858	7.53
410.217	7.52
410.577	7.51
410.936	7.53
411.295	7.52
411.655	7.49
412.014	7.45
412.373	7.43
412.732	7.42
413.091	7.4
413.45	7.34
413.809	7.29
414.168	7.23
414.527	7.16
414.886	7.08
415.245	7.02
415.603	6.99
415.962	6.93
416.321	6.89
416.679	6.85
417.038	6.79
417.397	6.74
417.755	6.7
418.114	6.65
418.472	6.61
418.831	6.58
419.189	6.55
419.547	6.54
419.906	6.52
420.264	6.49
420.622	6.47
420.981	6.47
421.339	6.45
421.697	6.46
422.055	6.47
422.413	6.47
422.771	6.48
423.129	6.49
423.487	6.49
423.845	6.52
424.203	6.54
424.56	6.57
424.918	6.61
425.276	6.64
425.634	6.69
425.991	6.72
426.349	6.75
426.707	6.79
427.064	6.8
427.422	6.82
427.779	6.89
428.137	6.93
428.494	6.97
428.851	7.02
429.209	7.04
429.566	7.04
429.923	7.04
430.28	7.05
430.637	7.06
430.995	7.04
431.352	7.02
431.709	7.01
432.066	7.01
432.423	7.01
432.78	6.99
433.137	6.98
433.493	6.97
433.85	7.03
434.207	6.95
434.564	6.95
434.92	6.93
435.277	6.9
435.634	6.88
435.99	6.84
436.347	6.82
436.703	6.81
437.06	6.78
437.416	6.78
437.773	6.75
438.129	6.72
438.485	6.77
438.841	6.76
439.198	6.77
439.554	6.75
439.91	6.74
440.266	6.74
440.622	6.75
440.978	6.74
441.334	6.68
441.69	6.71
442.046	6.7
442.402	6.68
442.758	6.66
443.113	6.64
443.469	6.64
443.825	6.62
444.181	6.62
444.536	6.63
444.892	6.64
445.247	6.66
445.603	6.67
445.958	6.66
446.314	6.66
446.669	6.65
447.025	6.66
447.38	6.67
447.735	6.67
448.09	6.66
448.446	6.67
448.801	6.68
449.156	6.68
449.511	6.71
449.866	6.74
450.221	6.78
450.576	6.83
450.931	6.88
451.286	6.93
451.641	6.98
451.995	7.03
452.35	7.07
452.705	7.09
453.06	7.11
453.414	7.13
453.769	7.14
454.123	7.15
454.478	7.15
454.832	7.19
455.187	7.16
455.541	7.16
455.896	7.12
456.25	7.11
456.604	7.08
456.958	7.07
457.313	7.07
457.667	7.06
458.021	7.05
458.375	7.03
458.729	7.05
459.083	7.04
459.437	7.05
459.791	7.03
460.145	7.04
460.499	7.04
460.852	7.03
461.206	7.05
461.56	7.05
461.914	7.05
462.267	7.02
462.621	7.05
462.974	7.06
463.328	7.1
463.681	7.11
464.035	7.15
464.388	7.17
464.742	7.18
465.095	7.22
465.448	7.27
465.801	7.27
466.155	7.27
466.508	7.28
466.861	7.28
467.214	7.3
467.567	7.31
467.92	7.32
468.273	7.32
468.626	7.31
468.979	7.32
469.332	7.32
469.684	7.33
470.037	7.36
470.39	7.37
470.743	7.39
471.095	7.41
471.448	7.45
471.8	7.48
472.153	7.51
472.505	7.5
472.858	7.5
473.21	7.53
473.562	7.56
473.915	7.56
474.267	7.55
474.619	7.56
474.971	7.57
475.324	7.56
475.676	7.62
476.028	7.62
476.38	7.64
476.732	7.65
477.084	7.66
477.436	7.66
477.787	7.67
478.139	7.68
478.491	7.7
478.843	7.69
479.195	7.71
479.546	7.66
479.898	7.63
480.249	7.58
480.601	7.53
480.952	7.49
481.304	7.47
481.655	7.47
482.007	7.46
482.358	7.45
482.709	7.45
483.061	7.43
483.412	7.44
483.763	7.43
484.114	7.44
484.465	7.44
484.816	7.44
485.167	7.44
485.518	7.43
485.869	7.43
486.22	7.43
486.571	7.43
486.922	7.45
487.272	7.46
487.623	7.48
487.974	7.5
488.324	7.53
488.675	7.55
489.025	7.56
489.376	7.58
489.726	7.59
490.077	7.61
490.427	7.63
490.778	7.65
491.128	7.67
491.478	7.69
491.828	7.74
492.179	7.77
492.529	7.82
492.879	7.85
493.229	7.89
493.579	7.91
493.929	7.93
494.279	7.94
494.629	7.98
494.979	8.01
495.328	8.07
495.678	8.11
496.028	8.18
496.378	8.23
496.727	8.29
497.077	8.34
497.426	8.4
497.776	8.38
498.125	8.4
498.475	8.43
498.824	8.45
499.174	8.43
499.523	8.43
499.872	8.42
500.221	8.45
500.571	8.46
500.92	8.49
501.269	8.51
501.618	8.53
501.967	8.53
502.316	8.56
502.665	8.58
503.014	8.59
503.363	8.61
503.711	8.61
504.06	8.62
504.409	8.63
504.758	8.59
505.106	8.62
505.455	8.64
505.803	8.64
506.152	8.64
506.5	8.66
506.849	8.67
507.197	8.69
507.546	8.68
507.894	8.69
508.242	8.7
508.59	8.7
508.939	8.72
509.287	8.75
509.635	8.75
509.983	8.76
510.331	8.78
510.679	8.78
511.027	8.8
511.375	8.82
511.723	8.83
512.07	8.87
512.418	8.92
512.766	8.93
513.114	8.96
513.461	8.98
513.809	9
514.156	9.02
514.504	9.05
514.851	9.06
515.199	9.08
515.546	9.11
515.893	9.13
516.241	9.13
516.588	9.13
516.935	9.17
517.282	9.18
517.63	9.2
517.977	9.22
518.324	9.24
518.671	9.27
519.018	9.31
519.365	9.32
519.711	9.33
520.058	9.36
520.405	9.38
520.752	9.4
521.099	9.44
521.445	9.47
521.792	9.48
522.138	9.51
522.485	9.52
522.832	9.54
523.178	9.57
523.524	9.58
523.871	9.61
524.217	9.61
524.563	9.61
524.91	9.58
525.256	9.57
525.602	9.56
525.948	9.56
526.294	9.55
526.64	9.55
526.986	9.54
527.332	9.53
527.678	9.51
528.024	9.53
528.37	9.54
528.716	9.53
529.061	9.54
529.407	9.56
529.753	9.57
530.098	9.58
530.444	9.6
530.789	9.62
531.135	9.62
531.48	9.64
531.826	9.66
532.171	9.7
532.516	9.73
532.862	9.76
533.207	9.76
533.552	9.78
533.897	9.81
534.242	9.82
534.587	9.85
534.932	9.92
535.277	9.92
535.622	9.9
535.967	9.95
536.312	9.98
536.657	10
537.001	10.02
537.346	10.05
537.691	10.05
538.035	10.07
538.38	10.08
538.724	10.1
539.069	10.1
539.413	10.1
539.758	10.11
540.102	10.14
540.446	10.15
540.791	10.15
541.135	10.18
541.479	10.2
541.823	10.21
542.167	10.19
542.512	10.23
542.856	10.21
543.2	10.21
543.543	10.19
543.887	10.19
544.231	10.21
544.575	10.2
544.919	10.23
545.262	10.26
545.606	10.3
545.95	10.32
546.293	10.35
546.637	10.38
546.98	10.43
547.324	10.44
547.667	10.51
548.011	10.53
548.354	10.53
548.697	10.53
549.04	10.56
549.384	10.57
549.727	10.56
550.07	10.61
550.413	10.65
550.756	10.67
551.099	10.7
551.442	10.71
551.785	10.75
552.128	10.75
552.47	10.73
552.813	10.71
553.156	10.71
553.499	10.71
553.841	10.72
554.184	10.7
554.526	10.7
554.869	10.67
555.211	10.7
555.554	10.69
555.896	10.7
556.238	10.69
556.581	10.69
556.923	10.69
557.265	10.7
557.607	10.69
557.949	10.72
558.291	10.7
558.633	10.67
558.975	10.65
559.317	10.66
559.659	10.66
560.001	10.65
560.343	10.63
560.685	10.62
561.026	10.62
561.368	10.6
561.71	10.59
562.051	10.59
562.393	10.6
562.734	10.54
563.076	10.53
563.417	10.51
563.759	10.5
564.1	10.48
564.441	10.49
564.782	10.48
565.124	10.45
565.465	10.43
565.806	10.43
566.147	10.43
566.488	10.4
566.829	10.39
567.17	10.37
567.511	10.35
567.851	10.34
568.192	10.29
568.533	10.26
568.874	10.26
569.214	10.23
569.555	10.18
569.895	10.19
570.236	10.19
570.576	10.17
570.917	10.13
571.257	10.11
571.598	10.07
571.938	10.05
572.278	10.04
572.618	10.05
572.959	10.03
573.299	10
573.639	9.99
573.979	9.99
574.319	9.96
574.659	9.98
574.999	9.95
575.339	9.97
575.678	9.98
576.018	9.95
576.358	9.94
576.698	9.95
577.037	9.96
577.377	9.95
577.716	9.93
578.056	9.94
578.395	9.91
578.735	9.9
579.074	9.87
579.413	9.85
579.753	9.82
580.092	9.82
580.431	9.81
580.77	9.8
581.109	9.78
581.448	9.78
581.787	9.73
582.126	9.73
582.465	9.7
582.804	9.67
583.143	9.71
583.482	9.68
583.82	9.65
584.159	9.63
584.498	9.59
584.836	9.57
585.175	9.58
585.514	9.55
585.852	9.52
586.19	9.53
586.529	9.51
586.867	9.47
587.205	9.44
587.544	9.45
587.882	9.42
588.22	9.39
588.558	9.4
588.896	9.43
589.234	9.41
589.572	9.4
589.91	9.4
590.248	9.34
590.586	9.37
590.924	9.37
591.262	9.35
591.599	9.34
591.937	9.34
592.275	9.3
592.612	9.33
592.95	9.33
593.287	9.36
593.625	9.36
593.962	9.36
594.299	9.38
594.637	9.35
594.974	9.37
595.311	9.37
595.648	9.35
595.985	9.33
596.322	9.32
596.659	9.34
596.996	9.31
597.333	9.28
597.67	9.24
598.007	9.24
598.344	9.21
598.681	9.24
599.017	9.19
599.354	9.15
599.691	9.14
600.027	9.15
600.364	9.09
600.7	9.1
601.037	9.1
601.373	9.07
601.71	9.06
602.046	9.07
602.382	9.07
602.718	9.07
603.054	9.03
603.391	9.04
603.727	9
604.063	9.01
604.399	9.03
604.735	9.03
605.071	8.99
605.406	9
605.742	8.97
606.078	9.01
606.414	9.01
606.749	8.98
607.085	8.94
607.421	8.94
607.756	8.92
608.092	8.89
608.427	8.88
608.762	8.87
609.098	8.81
609.433	8.77
609.768	8.74
610.104	8.73
610.439	8.7
610.774	8.67
611.109	8.6
611.444	8.59
611.779	8.56
612.114	8.55
612.449	8.52
612.784	8.49
613.118	8.45
613.453	8.47
613.788	8.44
614.123	8.4
614.457	8.37
614.792	8.35
615.126	8.3
615.461	8.24
615.795	8.17
616.13	8.16
616.464	8.17
616.798	8.13
617.132	8.12
617.467	8.11
617.801	8.09
618.135	8.13
618.469	8.07
618.803	8.03
619.137	8.05
619.471	8.02
619.805	7.98
620.139	7.96
620.472	7.91
620.806	7.92
621.14	7.93
621.473	7.94
621.807	7.9
622.141	7.92
622.474	7.91
622.808	7.93
623.141	7.92
623.474	7.88
623.808	7.92
624.141	7.94
624.474	7.97
624.807	7.97
625.141	7.96
625.474	8
625.807	8.03
626.14	8
626.473	8.02
626.806	8.05
627.138	8.05
627.471	8.03
627.804	8
628.137	7.99
628.469	7.95
628.802	7.95
629.135	7.96
629.467	7.98
629.8	7.97
630.132	7.94
630.465	7.94
630.797	7.94
631.129	7.92
631.461	7.88
631.794	7.9
632.126	7.86
632.458	7.82
632.79	7.82
633.122	7.84
633.454	7.83
633.786	7.77
634.118	7.76
634.45	7.79
634.781	7.77
635.113	7.76
635.445	7.78
635.777	7.78
636.108	7.73
636.44	7.7
636.771	7.71
637.103	7.69
637.434	7.65
637.765	7.59
638.097	7.64
638.428	7.58
638.759	7.53
639.09	7.56
639.422	7.58
639.753	7.53
640.084	7.53
640.415	7.52
640.746	7.55
641.077	7.52
641.407	7.47
641.738	7.46
642.069	7.47
642.4	7.45
642.73	7.45
643.061	7.46
643.392	7.46
643.722	7.43
644.053	7.45
644.383	7.45
644.713	7.48
645.044	7.39
645.374	7.41
645.704	7.39
646.034	7.38
646.365	7.39
646.695	7.47
647.025	7.51
647.355	7.47
647.685	7.45
648.015	7.51
648.344	7.58
648.674	7.58
649.004	7.54
649.334	7.51
649.663	7.52
649.993	7.51
650.323	7.51
650.652	7.51
650.982	7.55
651.311	7.55
651.64	7.54
651.97	7.58
652.299	7.61
652.628	7.63
652.958	7.61
653.287	7.59
653.616	7.47
653.945	7.42
654.274	7.46
654.603	7.46
654.932	7.42
655.261	7.39
655.589	7.43
655.918	7.48
656.247	7.56
656.576	7.59
656.904	7.63
657.233	7.71
657.561	7.76
657.89	7.74
658.218	7.77
658.547	7.76
658.875	7.78
659.203	7.79
659.532	7.79
659.86	7.81
660.188	7.81
660.516	7.86
660.844	7.85
661.172	7.84
661.5	7.84
661.828	7.86
662.156	7.85
662.484	7.83
662.811	7.8
663.139	7.77
663.467	7.77
663.794	7.75
664.122	7.7
664.45	7.66
664.777	7.67
665.104	7.72
665.432	7.71
665.759	7.66
666.086	7.66
666.414	7.68
666.741	7.67
667.068	7.66
667.395	7.65
667.722	7.68
668.049	7.69
668.376	7.69
668.703	7.65
669.03	7.66
669.357	7.67
669.683	7.66
670.01	7.63
670.337	7.59
670.663	7.57
670.99	7.56
671.317	7.57
671.643	7.58
671.969	7.49
672.296	7.52
672.622	7.56
672.948	7.53
673.275	7.55
673.601	7.59
673.927	7.58
674.253	7.57
674.579	7.57
674.905	7.6
675.231	7.64
675.557	7.71
675.883	7.71
676.209	7.75
676.534	7.77
676.86	7.82
677.186	7.86
677.511	7.9
677.837	7.93
678.162	7.95
678.488	7.95
678.813	8.01
679.139	8.03
679.464	8.08
679.789	8.09
680.114	8.05
680.44	7.99
680.765	8.01
681.09	7.99
681.415	7.97
681.74	7.97
682.065	7.98
682.39	8
682.714	8.05
683.039	8.01
683.364	8.02
683.689	8.02
684.013	8.03
684.338	8
684.662	8.02
684.987	8.06
685.311	8.08
685.636	8.09
685.96	8.09
686.284	8.01
686.608	8.03
686.933	8.03
687.257	8.06
687.581	8.09
687.905	8.14
688.229	8.18
688.553	8.13
688.877	8.08
689.201	8.07
689.524	8.07
689.848	8.1
690.172	8.11
690.496	8.08
690.819	8.05
691.143	8.09
691.466	8.05
691.79	7.98
692.113	8.02
692.436	8.03
692.76	8.04
693.083	8.07
693.406	8.11
693.729	8.19
694.053	8.23
694.376	8.23
694.699	8.25
695.022	8.25
695.344	8.37
695.667	8.47
695.99	8.5
696.313	8.54
696.636	8.57
696.958	8.62
697.281	8.72
697.604	8.81
697.926	8.85
698.249	8.96
698.571	8.97
698.893	8.91
699.216	8.88
699.538	8.9
699.86	8.92
700.182	8.91
700.504	8.86
700.827	8.84
701.149	8.85
701.471	8.89
701.793	8.91
702.114	8.95
702.436	8.96
702.758	8.98
703.08	8.94
703.401	8.92
703.723	8.91
704.045	8.84
704.366	8.83
704.688	8.81
705.009	8.69
705.331	8.74
705.652	8.75
705.973	8.77
706.294	8.71
706.616	8.71
706.937	8.7
707.258	8.77
707.579	8.85
707.9	8.86
708.221	8.9
708.542	8.98
708.863	8.89
709.183	8.91
709.504	8.91
709.825	8.92
710.145	9
710.466	9.02
710.787	9.08
711.107	9.04
711.427	9.07
711.748	9.14
712.068	9.15
712.388	9.23
712.709	9.29
713.029	9.38
713.349	9.48
713.669	9.54
713.989	9.62
714.309	9.64
714.629	9.7
714.949	9.64
715.269	9.63
715.589	9.68
715.908	9.65
716.228	9.68
716.548	9.73
716.867	9.69
717.187	9.79
717.506	9.89
717.826	10.01
718.145	10.06
718.465	10.04
718.784	10.15
719.103	10.24
719.422	10.29
719.741	10.32
720.061	10.44
720.38	10.57
720.699	10.65
721.018	10.73
721.336	10.92
721.655	11.04
721.974	11.12
722.293	11.25
722.612	11.44
722.93	11.55
723.249	11.66
723.567	11.82
723.886	11.88
724.204	11.96
724.523	12.06
724.841	12.08
725.159	12.21
725.477	12.22
725.796	12.24
726.114	12.35
726.432	12.5
726.75	12.49
727.068	12.55
727.386	12.63
727.704	12.8
728.022	12.87
728.339	13.12
728.657	13.22
728.975	13.32
729.292	13.35
729.61	13.43
729.928	13.5
730.245	13.52
730.562	13.59
730.88	13.61
731.197	13.67
731.514	13.8
731.832	13.92
732.149	14.09
732.466	14.24
732.783	14.34
733.1	14.43
733.417	14.55
733.734	14.63
734.051	14.66
734.368	14.64
734.684	14.68
735.001	14.64
735.318	14.62
735.634	14.65
735.951	14.76
736.268	14.82
736.584	14.96
736.9	15.15
737.217	15.29
737.533	15.37
737.849	15.38
738.166	15.48
738.482	15.58
738.798	15.64
739.114	15.78
739.43	15.85
739.746	15.93
740.062	15.95
740.378	16.06
740.693	16.24
741.009	16.38
741.325	16.5
741.641	16.63
741.956	16.8
742.272	17.04
742.587	17.25
742.903	17.46
743.218	17.54
743.533	17.7
743.849	17.89
744.164	18.08
744.479	18.26
744.794	18.34
745.109	18.44
745.424	18.54
745.739	18.46
746.054	18.49
746.369	18.53
746.684	18.65
746.999	18.78
747.313	18.77
747.628	18.8
747.943	18.78
748.257	18.95
748.572	19.1
748.886	19.07
749.201	19.17
749.515	19.17
749.829	19.21
750.144	19.21
750.458	19.18
750.772	19.19
751.086	19.36
751.4	19.38
751.714	19.34
752.028	19.28
752.342	19.38
752.656	19.54
752.97	19.65
753.284	19.76
753.597	19.78
753.911	19.87
754.225	19.98
754.538	20.1
754.852	20.11
755.165	20.08
755.478	20.05
755.792	19.96
756.105	20.03
756.418	20.04
756.731	20.04
757.045	20.06
757.358	20.02
757.671	19.94
757.984	20.12
758.297	20.35
758.609	20.65
758.922	20.83
759.235	20.84
759.548	20.88
759.86	20.77
760.173	20.59
760.486	20.43
760.798	20.32
761.111	20.19
761.423	20.11
761.735	20.18
762.048	20.31
762.36	20.22
762.672	20.27
762.984	20.41
763.296	20.54
763.608	20.66
763.92	20.73
764.232	20.74
764.544	20.69
764.856	20.7
765.168	20.66
765.48	20.64
765.791	20.76
766.103	20.82
766.414	21.09
766.726	21.4
767.037	21.72
767.349	21.99
767.66	22.24
767.972	22.52
768.283	22.73
768.594	22.83
768.905	23.21
769.216	23.46
769.527	23.62
769.838	23.87
770.149	24.2
770.46	24.47
770.771	24.72
771.082	25.05
771.393	25.15
771.703	25.31
772.014	25.51
772.324	25.45
772.635	25.69
772.945	25.82
773.256	26.06
773.566	26.14
773.877	26.46
774.187	26.69
774.497	26.78
774.807	26.89
775.117	27.12
775.427	27.21
775.737	27.24
776.047	27.24
776.357	27.16
776.667	27.08
776.977	27.2
777.287	27.39
777.596	27.54
777.906	27.8
778.216	28
778.525	28.08
778.835	28.41
779.144	28.41
779.453	28.28
779.763	28.12
780.072	28.19
780.381	28.17
780.69	28.27
781	28.47
781.309	28.74
781.618	28.98
781.927	29.42
782.235	29.56
782.544	29.69
782.853	29.92
783.162	30.04
783.471	30.3
783.779	30.4
784.088	30.46
784.396	30.5
784.705	30.43
785.013	30.45
785.322	30.52
785.63	30.75
785.938	30.98
786.246	31.13
786.554	31.08
786.863	31.08
787.171	31.25
787.479	31.21
787.787	30.99
788.094	30.75
788.402	30.55
788.71	30.6
789.018	30.77
789.326	30.66
789.633	30.58
789.941	30.5
790.248	30.44
790.556	30.52
790.863	30.51
791.171	30.63
791.478	30.83
791.785	30.76
792.092	30.84
792.399	30.85
792.707	30.97
793.014	31.21
793.321	31.37
793.628	31.26
793.934	31.35
794.241	31.5
794.548	31.66
794.855	31.65
795.161	31.42
795.468	31.22
795.775	31.29
796.081	31.54
796.388	31.68
796.694	31.94
797	31.93
797.307	31.95
797.613	31.89
797.919	31.89
798.225	32.13
798.531	31.97
798.837	31.87
799.143	32.16
799.449	32.45
799.755	32.62
800.061	32.91
800.367	32.83
800.672	32.84
800.978	32.99
801.284	33.06
801.589	33.49
801.895	33.67
802.2	33.94
802.506	33.85
802.811	33.83
803.116	33.54
803.421	33.53
803.727	33.59
804.032	33.92
804.337	34.15
804.642	34.05
804.947	34.1
805.252	34.35
805.556	34.14
805.861	33.95
806.166	33.88
806.471	34.02
806.775	34.35
807.08	34.56
807.384	34.72
807.689	35.02
807.993	34.96
808.298	35.09
808.602	35.12
808.906	35.17
809.211	35.22
809.515	35.33
809.819	35.4
810.123	35.18
810.427	35.19
810.731	35.06
811.035	35.29
811.338	35.6
811.642	35.7
811.946	35.96
812.25	36.61
812.553	37.06
812.857	37.09
813.16	37.22
813.464	37.62
813.767	37.69
814.07	37.51
814.374	37.38
814.677	37.46
814.98	37.62
815.283	37.47
815.586	37.37
815.889	37.24
816.192	37.31
816.495	37.61
816.798	37.36
817.101	37.04
817.404	36.58
817.706	36.02
818.009	35.45
818.312	34.65
818.614	33.38
818.917	31.69
819.219	29.97
819.521	28.14
819.824	26.42
820.126	25.13
820.428	24.39
820.73	23.83
821.032	23.33
821.334	22.99
821.636	22.86
821.938	22.77
822.24	22.73
822.542	22.67
822.844	22.67
823.145	22.68
823.447	22.64
823.749	22.63
824.05	22.59
824.352	22.63
824.653	22.6
824.955	22.59
825.256	22.69
825.557	22.82
825.858	23.09
826.16	23.49
826.461	24
826.762	24.48
827.063	25.03
827.364	25.7
827.665	26.25
827.965	26.75
828.266	27.21
828.567	27.65
828.868	27.96
829.168	28.02
829.469	28.19
829.769	28.5
830.07	29.02
830.37	29.58
830.67	29.86
830.971	30.28
831.271	30.79
831.571	31.18
831.871	31.63
832.171	31.87
832.471	31.9
832.771	32.13
833.071	32.16
833.371	32.18
833.671	32.02
833.971	32.03
834.27	32.1
834.57	32.07
834.869	32.13
835.169	32.14
835.468	32.29
835.768	32.33
836.067	32.44
836.367	32.35
836.666	32.32
836.965	32.62
837.264	33.26
837.563	33.89
837.862	34.64
838.161	35.16
838.46	35.85
838.759	36.71
839.058	37.48
839.356	38.2
839.655	39.21
839.954	39.95
840.252	40.39
840.551	40.51
840.849	40.83
841.148	41.24
841.446	41.79
841.744	42.36
842.043	43.2
842.341	43.6
842.639	44.01
842.937	44.36
843.235	44.53
843.533	44.73
843.831	45.28
844.129	46.23
844.427	47.45
844.724	48.05
845.022	48.88
845.32	49.64
845.617	50.71
845.915	51
846.212	51.5
846.51	51.93
846.807	52.43
847.104	53.18
847.402	53.06
847.699	53.5
847.996	53.89
848.293	53.52
848.59	53.39
848.887	53.2
849.184	52.99
849.481	53.51
849.778	54.64
850.074	54.93
850.371	54.91
850.668	54.93
850.964	55.5
851.261	55.35
851.557	55.28
851.854	55.12
852.15	55.53
852.446	55.62
852.743	56.42
853.039	56.94
853.335	56.95
853.631	58.03
853.927	58.27
854.223	58.34
854.519	58.61
854.815	58.57
855.111	58.97
855.406	60.04
855.702	60.66
855.998	60
856.293	60.09
856.589	59.86
856.884	59.49
857.18	58.85
857.475	58.81
857.77	59.19
858.066	59.16
858.361	59.8
858.656	60.16
858.951	60
859.246	60.43
859.541	61.11
859.836	60.66
860.131	60.57
860.426	60.25
860.72	60.1
861.015	60.12
861.31	60.07
861.604	60.22
861.899	59.89
862.193	59.31
862.487	59.77
862.782	60.58
863.076	60.83
863.37	61.83
863.664	62.82
863.959	63.37
864.253	64.91
864.547	64.72
864.841	64.72
865.135	64.37
865.428	63.31
865.722	63.29
866.016	63.35
866.31	63.12
866.603	63.93
866.897	64.27
867.19	64.46
867.484	65.29
867.777	65.23
868.07	65.15
868.364	66.73
868.657	66.13
868.95	65.1
869.243	65.46
869.536	65.34
869.829	64.91
870.122	63.89
870.415	62.41
870.708	62.23
871	61.82
871.293	62.11
871.586	62.11
871.878	61.36
872.171	60.85
872.463	61.09
872.756	60.77
873.048	60.52
873.341	60.58
873.633	59.49
873.925	58.75
874.217	58.53
874.509	57.02
874.801	56.93
875.093	57.23
875.385	56.95
875.677	56.63
875.969	56.2
