Data from Anodorhynchus_glaucus_chest_Reflection_5.txt Node
Date: Wed Mar 10 12:54:39 GMT-03:00 2021
User: Darío
Spectrometer: USB2E3644
Trigger mode: 4
Integration Time (sec): 5.600000E-2
Scans to average: 10
Electric dark correction enabled: true
Nonlinearity correction enabled: false
Boxcar width: 10
XAxis mode: Wavelengths
Number of Pixels in Spectrum: 2048
>>>>>Begin Spectral Data<<<<<
178.315	191.34
178.696	170.59
179.076	163.09
179.457	135.58
179.838	125.25
180.218	101.19
180.599	73.95
180.979	1700
181.36	96.46
181.74	84.73
182.121	82.3
182.501	98.14
182.881	101.52
183.262	99.61
183.642	108.52
184.022	114.88
184.402	113.3
184.783	112.6
185.163	119.87
185.543	121.05
185.923	128.21
186.303	142.75
186.683	145.5
187.063	141.5
187.443	129.87
187.823	128.83
188.203	130.23
188.583	132.55
188.963	137.21
189.343	138.85
189.723	137.88
190.102	142.92
190.482	146.25
190.862	148.34
191.242	152.59
191.621	148.61
192.001	146.32
192.38	144.32
192.76	140.55
193.14	135.56
193.519	131.91
193.898	126.53
194.278	125.24
194.657	123.83
195.037	122.31
195.416	125.29
195.795	123.97
196.175	121.99
196.554	118.18
196.933	115.22
197.312	115.99
197.692	117.3
198.071	118.43
198.45	119.04
198.829	118.17
199.208	117.94
199.587	120.23
199.966	122.92
200.345	126.08
200.724	126.3
201.103	127.04
201.482	127.97
201.86	133.68
202.239	135.05
202.618	137.77
202.997	143.61
203.375	145.08
203.754	146.56
204.133	140.38
204.511	141.19
204.89	138.85
205.269	134.92
205.647	135.99
206.026	135.41
206.404	134.83
206.782	137.29
207.161	141.4
207.539	144.57
207.918	141.7
208.296	143.01
208.674	149.15
209.052	156.23
209.431	159.04
209.809	153.84
210.187	152.91
210.565	150.35
210.943	152.37
211.321	151.44
211.699	152.29
212.077	168.2
212.455	179.76
212.833	202.85
213.211	214.81
213.589	224.49
213.967	216.69
214.345	217.84
214.722	217.07
215.1	212.16
215.478	222.73
215.855	228.69
216.233	231.39
216.611	215.32
216.988	202.04
217.366	207.83
217.743	239.02
218.121	264.04
218.498	294.21
218.876	275.08
219.253	308.37
219.631	358.84
220.008	343.43
220.385	376.4
220.762	338.67
221.14	381.14
221.517	397.1
221.894	669.28
222.271	951.69
222.648	3689.29
223.025	3775
223.402	1201.14
223.78	2702.5
224.157	821.32
224.533	588.27
224.91	473.83
225.287	395.34
225.664	360.27
226.041	358.65
226.418	335.71
226.795	330.93
227.171	354.78
227.548	397.68
227.925	450.3
228.301	459.83
228.678	556.04
229.055	525.3
229.431	651.95
229.808	686.48
230.184	589.64
230.561	582.21
230.937	867.82
231.313	1033.14
231.69	2181.71
232.066	-4147.73
232.442	-1449.22
232.819	-923.79
233.195	-1042.31
233.571	-1960.2
233.947	50275
234.323	3245.31
234.699	3643.1
235.075	5312.5
235.451	-27087.5
235.827	-2106.73
236.203	-1306.47
236.579	-925.21
236.955	-519.19
237.331	-397.63
237.707	-290.71
238.083	-226.15
238.459	-165.56
238.834	-139.42
239.21	-114.4
239.586	-104.64
239.961	-91.56
240.337	-80.31
240.713	-73.08
241.088	-70.32
241.464	-65.79
241.839	-64.51
242.215	-59.79
242.59	-54.59
242.965	-45.48
243.341	-34.4
243.716	-25.71
244.091	-19.99
244.467	-16.06
244.842	-14.65
245.217	-14.56
245.592	-13.79
245.967	-13.7
246.343	-16.75
246.718	-18.29
247.093	-19.83
247.468	-21.27
247.843	-21.77
248.218	-21.44
248.593	-21.3
248.967	-20.41
249.342	-19.73
249.717	-18.73
250.092	-18.41
250.467	-18.04
250.841	-18.55
251.216	-20.45
251.591	-23.65
251.965	-25.6
252.34	-29.04
252.714	-32.57
253.089	-34
253.463	-35.65
253.838	-36.27
254.212	-31.98
254.587	-27.39
254.961	-23.7
255.335	-19.75
255.71	-16.92
256.084	-14.44
256.458	-10.79
256.832	-8.97
257.206	-7.92
257.581	-7.79
257.955	-7.72
258.329	-7.56
258.703	-7.29
259.077	-7.2
259.451	-6.47
259.825	-6.82
260.199	-6.62
260.572	-5.51
260.946	-5.76
261.32	-5.44
261.694	-4.56
262.068	-4.57
262.441	-4.81
262.815	-4.84
263.189	-4.85
263.562	-4.74
263.936	-4.95
264.309	-5.58
264.683	-6.11
265.056	-7.07
265.43	-7
265.803	-6.7
266.176	-6.97
266.55	-6.62
266.923	-6.08
267.296	-6.56
267.67	-6.55
268.043	-6.82
268.416	-6.91
268.789	-6.49
269.162	-6.2
269.535	-6.36
269.908	-5.93
270.281	-5.49
270.654	-5.19
271.027	-5.26
271.4	-5.43
271.773	-5.14
272.146	-5.18
272.519	-4.99
272.891	-4.61
273.264	-4.39
273.637	-4.19
274.01	-3.97
274.382	-4.33
274.755	-4.81
275.127	-4.74
275.5	-4.76
275.872	-4.29
276.245	-4.01
276.617	-3.43
276.99	-3.14
277.362	-2.81
277.734	-2.23
278.107	-1.99
278.479	-1.9
278.851	-1.65
279.223	-1.16
279.596	-0.92
279.968	-0.78
280.34	-0.42
280.712	0.02
281.084	0.37
281.456	0.63
281.828	0.89
282.2	1.21
282.572	1.56
282.944	1.83
283.315	2.18
283.687	2.33
284.059	2.21
284.431	1.85
284.802	1.61
285.174	1.49
285.546	1.18
285.917	0.88
286.289	0.89
286.66	1.02
287.032	0.79
287.403	0.56
287.775	0.49
288.146	0.59
288.518	0.47
288.889	0.27
289.26	0.21
289.632	0.35
290.003	0.76
290.374	1.13
290.745	1.16
291.116	1.24
291.487	1.18
291.858	1.38
292.229	1.57
292.6	2
292.971	2.48
293.342	2.65
293.713	2.91
294.084	2.97
294.455	2.91
294.826	2.94
295.196	2.96
295.567	2.95
295.938	2.65
296.308	2.72
296.679	2.75
297.05	2.82
297.42	2.73
297.791	2.54
298.161	2.43
298.532	2.45
298.902	2.46
299.272	2.61
299.643	2.5
300.013	2.5
300.383	2.51
300.754	2.32
301.124	2.22
301.494	2.13
301.864	2.01
302.234	1.89
302.604	1.81
302.974	1.89
303.344	1.96
303.714	2.05
304.084	2.15
304.454	2.32
304.824	2.41
305.194	2.61
305.563	2.51
305.933	2.46
306.303	2.56
306.673	2.7
307.042	2.8
307.412	2.86
307.781	3.05
308.151	3.03
308.521	3.01
308.89	3.05
309.259	3
309.629	3.15
309.998	3.26
310.368	3.4
310.737	3.44
311.106	3.49
311.475	3.52
311.845	3.64
312.214	3.86
312.583	4.04
312.952	3.88
313.321	3.73
313.69	3.8
314.059	3.93
314.428	3.89
314.797	3.79
315.166	3.77
315.535	3.76
315.904	3.69
316.272	3.74
316.641	3.73
317.01	3.86
317.379	3.75
317.747	3.88
318.116	4
318.484	3.94
318.853	3.83
319.221	4.02
319.59	3.91
319.958	3.76
320.327	3.49
320.695	3.59
321.063	4.05
321.432	3.98
321.8	3.9
322.168	4.01
322.536	4.08
322.905	4.1
323.273	4
323.641	4.06
324.009	4.18
324.377	4.33
324.745	4.43
325.113	4.43
325.481	4.43
325.849	4.5
326.216	4.7
326.584	4.96
326.952	5.11
327.32	5.21
327.687	5.17
328.055	5.27
328.423	5.43
328.79	5.36
329.158	5.42
329.525	5.43
329.893	5.37
330.26	5.39
330.628	5.44
330.995	5.53
331.362	5.44
331.73	5.33
332.097	5.26
332.464	5.15
332.831	5.33
333.199	5.52
333.566	5.56
333.933	5.58
334.3	5.56
334.667	5.37
335.034	5.34
335.401	5.47
335.768	5.46
336.135	5.43
336.502	5.48
336.868	5.49
337.235	5.63
337.602	5.76
337.969	5.78
338.335	5.89
338.702	5.91
339.069	5.98
339.435	5.99
339.802	6.12
340.168	6.29
340.535	6.31
340.901	6.14
341.267	6.07
341.634	5.99
342	6.01
342.366	6.06
342.733	6.05
343.099	6.08
343.465	6.25
343.831	6.31
344.197	6.31
344.563	6.36
344.929	6.26
345.295	6.1
345.661	6.05
346.027	6.02
346.393	6.05
346.759	6.08
347.125	6.04
347.491	5.94
347.856	5.83
348.222	5.8
348.588	5.78
348.953	5.77
349.319	5.75
349.684	5.69
350.05	5.76
350.415	5.77
350.781	5.72
351.146	5.6
351.512	5.56
351.877	5.59
352.242	5.68
352.608	5.76
352.973	5.85
353.338	5.87
353.703	5.9
354.068	5.85
354.433	5.83
354.798	5.85
355.164	5.88
355.528	5.94
355.893	5.94
356.258	5.95
356.623	5.95
356.988	5.98
357.353	6.09
357.718	6.09
358.082	6.12
358.447	6.18
358.812	6.25
359.176	6.29
359.541	6.34
359.905	6.38
360.27	6.43
360.634	6.5
360.999	6.6
361.363	6.65
361.728	6.8
362.092	6.9
362.456	6.99
362.821	7.05
363.185	7.08
363.549	7.13
363.913	7.24
364.277	7.38
364.641	7.5
365.005	7.49
365.369	7.58
365.733	7.67
366.097	7.73
366.461	7.72
366.825	7.73
367.189	7.72
367.553	7.71
367.916	7.75
368.28	7.87
368.644	8.01
369.007	8.08
369.371	8.06
369.734	8.13
370.098	8.29
370.461	8.37
370.825	8.43
371.188	8.51
371.552	8.58
371.915	8.62
372.278	8.68
372.642	8.75
373.005	8.76
373.368	8.83
373.731	8.88
374.094	9
374.457	9.09
374.82	9.17
375.183	9.23
375.546	9.29
375.909	9.33
376.272	9.3
376.635	9.33
376.998	9.43
377.361	9.45
377.723	9.42
378.086	9.43
378.449	9.49
378.811	9.49
379.174	9.51
379.537	9.55
379.899	9.59
380.262	9.65
380.624	9.68
380.987	9.7
381.349	9.74
381.711	9.77
382.074	9.82
382.436	9.81
382.798	9.86
383.16	9.83
383.522	9.8
383.884	9.85
384.247	9.86
384.609	9.85
384.971	9.88
385.333	9.89
385.695	9.98
386.056	10.03
386.418	10.09
386.78	10.09
387.142	10.07
387.504	10.03
387.865	10
388.227	9.99
388.589	9.95
388.95	9.91
389.312	9.88
389.673	9.85
390.035	9.81
390.396	9.81
390.758	9.83
391.119	9.81
391.48	9.76
391.842	9.76
392.203	9.75
392.564	9.76
392.925	9.79
393.286	9.78
393.648	9.72
394.009	9.7
394.37	9.72
394.731	9.74
395.092	9.75
395.452	9.78
395.813	9.77
396.174	9.81
396.535	9.81
396.896	9.84
397.257	9.85
397.617	9.9
397.978	9.89
398.338	9.92
398.699	9.98
399.06	10.01
399.42	10.01
399.781	10
400.141	9.98
400.501	9.93
400.862	9.91
401.222	9.92
401.582	9.9
401.943	9.87
402.303	9.84
402.663	9.84
403.023	9.81
403.383	9.83
403.743	9.86
404.103	9.9
404.463	9.91
404.823	9.92
405.183	9.92
405.543	9.9
405.903	9.88
406.262	9.85
406.622	9.81
406.982	9.81
407.342	9.8
407.701	9.79
408.061	9.8
408.42	9.8
408.78	9.8
409.139	9.82
409.499	9.84
409.858	9.83
410.217	9.84
410.577	9.87
410.936	9.82
411.295	9.77
411.655	9.72
412.014	9.64
412.373	9.6
412.732	9.56
413.091	9.55
413.45	9.49
413.809	9.44
414.168	9.42
414.527	9.34
414.886	9.31
415.245	9.27
415.603	9.22
415.962	9.17
416.321	9.13
416.679	9.08
417.038	9.03
417.397	8.98
417.755	8.93
418.114	8.88
418.472	8.85
418.831	8.81
419.189	8.79
419.547	8.77
419.906	8.76
420.264	8.74
420.622	8.71
420.981	8.69
421.339	8.67
421.697	8.64
422.055	8.64
422.413	8.65
422.771	8.64
423.129	8.66
423.487	8.66
423.845	8.65
424.203	8.65
424.56	8.66
424.918	8.69
425.276	8.72
425.634	8.74
425.991	8.77
426.349	8.81
426.707	8.82
427.064	8.85
427.422	8.87
427.779	8.89
428.137	8.93
428.494	8.99
428.851	9.02
429.209	9.08
429.566	9.1
429.923	9.07
430.28	9.07
430.637	9.05
430.995	9.02
431.352	9.03
431.709	9.03
432.066	9.02
432.423	9
432.78	8.99
433.137	8.96
433.493	8.94
433.85	8.94
434.207	8.92
434.564	8.9
434.92	8.87
435.277	8.86
435.634	8.84
435.99	8.8
436.347	8.8
436.703	8.77
437.06	8.75
437.416	8.74
437.773	8.73
438.129	8.73
438.485	8.74
438.841	8.74
439.198	8.75
439.554	8.76
439.91	8.76
440.266	8.74
440.622	8.75
440.978	8.76
441.334	8.74
441.69	8.74
442.046	8.73
442.402	8.73
442.758	8.73
443.113	8.72
443.469	8.71
443.825	8.72
444.181	8.71
444.536	8.72
444.892	8.73
445.247	8.74
445.603	8.73
445.958	8.73
446.314	8.74
446.669	8.75
447.025	8.76
447.38	8.76
447.735	8.79
448.09	8.8
448.446	8.81
448.801	8.82
449.156	8.84
449.511	8.86
449.866	8.89
450.221	8.91
450.576	8.93
450.931	8.98
451.286	9.02
451.641	9.07
451.995	9.1
452.35	9.13
452.705	9.16
453.06	9.19
453.414	9.2
453.769	9.2
454.123	9.22
454.478	9.23
454.832	9.23
455.187	9.21
455.541	9.2
455.896	9.18
456.25	9.17
456.604	9.14
456.958	9.14
457.313	9.11
457.667	9.11
458.021	9.12
458.375	9.13
458.729	9.15
459.083	9.15
459.437	9.15
459.791	9.14
460.145	9.15
460.499	9.16
460.852	9.17
461.206	9.18
461.56	9.17
461.914	9.18
462.267	9.18
462.621	9.19
462.974	9.22
463.328	9.23
463.681	9.27
464.035	9.29
464.388	9.32
464.742	9.35
465.095	9.37
465.448	9.37
465.801	9.38
466.155	9.36
466.508	9.35
466.861	9.35
467.214	9.35
467.567	9.35
467.92	9.36
468.273	9.35
468.626	9.35
468.979	9.36
469.332	9.36
469.684	9.36
470.037	9.37
470.39	9.39
470.743	9.41
471.095	9.41
471.448	9.45
471.8	9.47
472.153	9.48
472.505	9.49
472.858	9.5
473.21	9.5
473.562	9.52
473.915	9.54
474.267	9.55
474.619	9.55
474.971	9.56
475.324	9.55
475.676	9.57
476.028	9.57
476.38	9.59
476.732	9.6
477.084	9.63
477.436	9.65
477.787	9.64
478.139	9.65
478.491	9.66
478.843	9.65
479.195	9.65
479.546	9.62
479.898	9.6
480.249	9.59
480.601	9.6
480.952	9.58
481.304	9.57
481.655	9.56
482.007	9.56
482.358	9.57
482.709	9.57
483.061	9.56
483.412	9.55
483.763	9.55
484.114	9.55
484.465	9.55
484.816	9.55
485.167	9.55
485.518	9.55
485.869	9.56
486.22	9.58
486.571	9.58
486.922	9.59
487.272	9.61
487.623	9.63
487.974	9.64
488.324	9.65
488.675	9.68
489.025	9.69
489.376	9.7
489.726	9.71
490.077	9.73
490.427	9.75
490.778	9.77
491.128	9.8
491.478	9.83
491.828	9.85
492.179	9.9
492.529	9.92
492.879	9.95
493.229	9.96
493.579	9.98
493.929	10.02
494.279	10.03
494.629	10.05
494.979	10.08
495.328	10.12
495.678	10.16
496.028	10.21
496.378	10.27
496.727	10.3
497.077	10.34
497.426	10.4
497.776	10.4
498.125	10.41
498.475	10.43
498.824	10.43
499.174	10.46
499.523	10.46
499.872	10.48
500.221	10.5
500.571	10.54
500.92	10.55
501.269	10.56
501.618	10.59
501.967	10.61
502.316	10.61
502.665	10.64
503.014	10.67
503.363	10.68
503.711	10.7
504.06	10.74
504.409	10.76
504.758	10.75
505.106	10.77
505.455	10.8
505.803	10.83
506.152	10.84
506.5	10.84
506.849	10.87
507.197	10.89
507.546	10.89
507.894	10.91
508.242	10.92
508.59	10.93
508.939	10.94
509.287	10.97
509.635	11
509.983	11
510.331	11.01
510.679	11.04
511.027	11.06
511.375	11.08
511.723	11.1
512.07	11.11
512.418	11.15
512.766	11.16
513.114	11.17
513.461	11.21
513.809	11.23
514.156	11.24
514.504	11.25
514.851	11.27
515.199	11.26
515.546	11.27
515.893	11.29
516.241	11.3
516.588	11.3
516.935	11.32
517.282	11.33
517.63	11.34
517.977	11.36
518.324	11.37
518.671	11.39
519.018	11.41
519.365	11.44
519.711	11.47
520.058	11.5
520.405	11.52
520.752	11.52
521.099	11.54
521.445	11.57
521.792	11.58
522.138	11.62
522.485	11.67
522.832	11.72
523.178	11.75
523.524	11.76
523.871	11.78
524.217	11.8
524.563	11.81
524.91	11.84
525.256	11.84
525.602	11.85
525.948	11.85
526.294	11.85
526.64	11.85
526.986	11.85
527.332	11.84
527.678	11.85
528.024	11.85
528.37	11.85
528.716	11.86
529.061	11.88
529.407	11.89
529.753	11.89
530.098	11.89
530.444	11.9
530.789	11.92
531.135	11.93
531.48	11.94
531.826	11.97
532.171	11.97
532.516	11.99
532.862	11.99
533.207	12
533.552	12.02
533.897	12.03
534.242	12.05
534.587	12.07
534.932	12.09
535.277	12.12
535.622	12.14
535.967	12.16
536.312	12.16
536.657	12.19
537.001	12.22
537.346	12.25
537.691	12.28
538.035	12.3
538.38	12.32
538.724	12.33
539.069	12.33
539.413	12.35
539.758	12.39
540.102	12.42
540.446	12.43
540.791	12.46
541.135	12.47
541.479	12.49
541.823	12.51
542.167	12.52
542.512	12.53
542.856	12.54
543.2	12.54
543.543	12.57
543.887	12.58
544.231	12.6
544.575	12.62
544.919	12.65
545.262	12.69
545.606	12.72
545.95	12.76
546.293	12.8
546.637	12.82
546.98	12.84
547.324	12.87
547.667	12.91
548.011	12.94
548.354	12.96
548.697	12.98
549.04	13.02
549.384	13.05
549.727	13.04
550.07	13.05
550.413	13.09
550.756	13.1
551.099	13.12
551.442	13.13
551.785	13.15
552.128	13.16
552.47	13.17
552.813	13.18
553.156	13.19
553.499	13.19
553.841	13.18
554.184	13.2
554.526	13.22
554.869	13.21
555.211	13.19
555.554	13.19
555.896	13.18
556.238	13.18
556.581	13.16
556.923	13.18
557.265	13.18
557.607	13.18
557.949	13.2
558.291	13.19
558.633	13.19
558.975	13.18
559.317	13.18
559.659	13.18
560.001	13.18
560.343	13.18
560.685	13.19
561.026	13.21
561.368	13.2
561.71	13.18
562.051	13.19
562.393	13.2
562.734	13.17
563.076	13.17
563.417	13.13
563.759	13.16
564.1	13.15
564.441	13.15
564.782	13.13
565.124	13.1
565.465	13.09
565.806	13.08
566.147	13.06
566.488	13.06
566.829	13.06
567.17	13.05
567.511	13.04
567.851	13.05
568.192	13.03
568.533	13.03
568.874	13.05
569.214	13.06
569.555	13.07
569.895	13.11
570.236	13.11
570.576	13.11
570.917	13.09
571.257	13.08
571.598	13.1
571.938	13.1
572.278	13.1
572.618	13.11
572.959	13.1
573.299	13.11
573.639	13.08
573.979	13.09
574.319	13.1
574.659	13.1
574.999	13.08
575.339	13.06
575.678	13.04
576.018	13
576.358	13
576.698	12.98
577.037	12.98
577.377	12.98
577.716	13
578.056	13.02
578.395	13
578.735	12.98
579.074	12.96
579.413	12.93
579.753	12.9
580.092	12.89
580.431	12.9
580.77	12.94
581.109	12.92
581.448	12.91
581.787	12.91
582.126	12.89
582.465	12.9
582.804	12.92
583.143	12.93
583.482	12.91
583.82	12.91
584.159	12.91
584.498	12.88
584.836	12.86
585.175	12.82
585.514	12.82
585.852	12.82
586.19	12.82
586.529	12.82
586.867	12.82
587.205	12.79
587.544	12.75
587.882	12.72
588.22	12.67
588.558	12.65
588.896	12.62
589.234	12.61
589.572	12.61
589.91	12.6
590.248	12.57
590.586	12.53
590.924	12.51
591.262	12.5
591.599	12.48
591.937	12.48
592.275	12.49
592.612	12.48
592.95	12.43
593.287	12.4
593.625	12.37
593.962	12.36
594.299	12.36
594.637	12.36
594.974	12.34
595.311	12.35
595.648	12.34
595.985	12.32
596.322	12.3
596.659	12.29
596.996	12.25
597.333	12.22
597.67	12.22
598.007	12.2
598.344	12.19
598.681	12.18
599.017	12.16
599.354	12.14
599.691	12.12
600.027	12.12
600.364	12.1
600.7	12.09
601.037	12.08
601.373	12.08
601.71	12.05
602.046	12.05
602.382	12.03
602.718	11.98
603.054	11.96
603.391	11.97
603.727	11.93
604.063	11.89
604.399	11.88
604.735	11.87
605.071	11.84
605.406	11.78
605.742	11.77
606.078	11.74
606.414	11.72
606.749	11.69
607.085	11.67
607.421	11.66
607.756	11.64
608.092	11.59
608.427	11.55
608.762	11.5
609.098	11.46
609.433	11.41
609.768	11.42
610.104	11.39
610.439	11.33
610.774	11.31
611.109	11.27
611.444	11.25
611.779	11.2
612.114	11.18
612.449	11.16
612.784	11.13
613.118	11.08
613.453	11.04
613.788	11.04
614.123	11.03
614.457	10.98
614.792	10.94
615.126	10.92
615.461	10.89
615.795	10.89
616.13	10.84
616.464	10.83
616.798	10.78
617.132	10.77
617.467	10.78
617.801	10.79
618.135	10.83
618.469	10.81
618.803	10.82
619.137	10.79
619.471	10.77
619.805	10.75
620.139	10.75
620.472	10.72
620.806	10.67
621.14	10.64
621.473	10.69
621.807	10.68
622.141	10.66
622.474	10.62
622.808	10.62
623.141	10.63
623.474	10.62
623.808	10.62
624.141	10.61
624.474	10.6
624.807	10.58
625.141	10.57
625.474	10.6
625.807	10.61
626.14	10.64
626.473	10.64
626.806	10.65
627.138	10.62
627.471	10.6
627.804	10.57
628.137	10.57
628.469	10.51
628.802	10.47
629.135	10.47
629.467	10.44
629.8	10.42
630.132	10.37
630.465	10.36
630.797	10.35
631.129	10.31
631.461	10.25
631.794	10.23
632.126	10.17
632.458	10.12
632.79	10.07
633.122	10.02
633.454	10.01
633.786	9.98
634.118	9.97
634.45	9.98
634.781	9.96
635.113	9.92
635.445	9.9
635.777	9.91
636.108	9.89
636.44	9.86
636.771	9.83
637.103	9.84
637.434	9.79
637.765	9.73
638.097	9.75
638.428	9.74
638.759	9.73
639.09	9.75
639.422	9.72
639.753	9.7
640.084	9.67
640.415	9.63
640.746	9.61
641.077	9.59
641.407	9.53
641.738	9.52
642.069	9.48
642.4	9.48
642.73	9.46
643.061	9.45
643.392	9.47
643.722	9.45
644.053	9.46
644.383	9.48
644.713	9.5
645.044	9.46
645.374	9.43
645.704	9.39
646.034	9.34
646.365	9.34
646.695	9.33
647.025	9.37
647.355	9.35
647.685	9.34
648.015	9.35
648.344	9.35
648.674	9.35
649.004	9.37
649.334	9.36
649.663	9.36
649.993	9.34
650.323	9.37
650.652	9.37
650.982	9.35
651.311	9.34
651.64	9.35
651.97	9.4
652.299	9.43
652.628	9.45
652.958	9.49
653.287	9.51
653.616	9.5
653.945	9.48
654.274	9.5
654.603	9.47
654.932	9.46
655.261	9.42
655.589	9.46
655.918	9.48
656.247	9.47
656.576	9.49
656.904	9.52
657.233	9.5
657.561	9.5
657.89	9.47
658.218	9.46
658.547	9.47
658.875	9.46
659.203	9.46
659.532	9.44
659.86	9.44
660.188	9.43
660.516	9.41
660.844	9.43
661.172	9.42
661.5	9.42
661.828	9.43
662.156	9.5
662.484	9.47
662.811	9.45
663.139	9.45
663.467	9.43
663.794	9.43
664.122	9.42
664.45	9.38
664.777	9.39
665.104	9.42
665.432	9.41
665.759	9.4
666.086	9.38
666.414	9.4
666.741	9.41
667.068	9.42
667.395	9.46
667.722	9.48
668.049	9.53
668.376	9.55
668.703	9.53
669.03	9.48
669.357	9.49
669.683	9.48
670.01	9.51
670.337	9.52
670.663	9.54
670.99	9.56
671.317	9.61
671.643	9.65
671.969	9.68
672.296	9.69
672.622	9.69
672.948	9.66
673.275	9.7
673.601	9.73
673.927	9.71
674.253	9.68
674.579	9.68
674.905	9.64
675.231	9.64
675.557	9.66
675.883	9.63
676.209	9.63
676.534	9.64
676.86	9.61
677.186	9.56
677.511	9.55
677.837	9.55
678.162	9.56
678.488	9.55
678.813	9.53
679.139	9.5
679.464	9.5
679.789	9.54
680.114	9.53
680.44	9.46
680.765	9.47
681.09	9.46
681.415	9.43
681.74	9.44
682.065	9.44
682.39	9.49
682.714	9.56
683.039	9.56
683.364	9.59
683.689	9.6
684.013	9.64
684.338	9.59
684.662	9.58
684.987	9.56
685.311	9.53
685.636	9.48
685.96	9.48
686.284	9.47
686.608	9.51
686.933	9.51
687.257	9.58
687.581	9.56
687.905	9.62
688.229	9.63
688.553	9.61
688.877	9.64
689.201	9.61
689.524	9.59
689.848	9.59
690.172	9.57
690.496	9.57
690.819	9.57
691.143	9.59
691.466	9.58
691.79	9.63
692.113	9.65
692.436	9.65
692.76	9.65
693.083	9.59
693.406	9.58
693.729	9.6
694.053	9.52
694.376	9.52
694.699	9.5
695.022	9.5
695.344	9.55
695.667	9.57
695.99	9.59
696.313	9.6
696.636	9.63
696.958	9.65
697.281	9.65
697.604	9.67
697.926	9.7
698.249	9.72
698.571	9.71
698.893	9.71
699.216	9.73
699.538	9.79
699.86	9.89
700.182	9.91
700.504	9.94
700.827	10.01
701.149	10.07
701.471	10.06
701.793	10.09
702.114	10.05
702.436	10.06
702.758	10.07
703.08	10.06
703.401	10.07
703.723	10.13
704.045	10.19
704.366	10.2
704.688	10.25
705.009	10.31
705.331	10.31
705.652	10.34
705.973	10.43
706.294	10.41
706.616	10.3
706.937	10.23
707.258	10.24
707.579	10.22
707.9	10.22
708.221	10.31
708.542	10.33
708.863	10.39
709.183	10.43
709.504	10.44
709.825	10.48
710.145	10.5
710.466	10.53
710.787	10.55
711.107	10.59
711.427	10.59
711.748	10.59
712.068	10.65
712.388	10.63
712.709	10.6
713.029	10.6
713.349	10.73
713.669	10.86
713.989	10.83
714.309	10.81
714.629	10.79
714.949	10.77
715.269	10.83
715.589	10.87
715.908	10.86
716.228	10.94
716.548	11.05
716.867	11.05
717.187	11.03
717.506	11.05
717.826	11.06
718.145	11.09
718.465	11.1
718.784	11.14
719.103	11.31
719.422	11.38
719.741	11.55
720.061	11.57
720.38	11.54
720.699	11.62
721.018	11.79
721.336	11.94
721.655	12.05
721.974	12.16
722.293	12.27
722.612	12.33
722.93	12.38
723.249	12.4
723.567	12.52
723.886	12.73
724.204	12.88
724.523	13.06
724.841	13.19
725.159	13.34
725.477	13.4
725.796	13.41
726.114	13.47
726.432	13.45
726.75	13.54
727.068	13.69
727.386	13.82
727.704	13.9
728.022	13.94
728.339	14.06
728.657	14.19
728.975	14.23
729.292	14.27
729.61	14.34
729.928	14.34
730.245	14.41
730.562	14.37
730.88	14.4
731.197	14.33
731.514	14.33
731.832	14.35
732.149	14.38
732.466	14.39
732.783	14.47
733.1	14.61
733.417	14.66
733.734	14.68
734.051	14.69
734.368	14.71
734.684	14.75
735.001	14.79
735.318	14.78
735.634	14.81
735.951	14.87
736.268	14.9
736.584	15.1
736.9	15.21
737.217	15.28
737.533	15.31
737.849	15.46
738.166	15.58
738.482	15.67
738.798	15.8
739.114	15.94
739.43	16.03
739.746	16.1
740.062	16.18
740.378	16.3
740.693	16.34
741.009	16.47
741.325	16.63
741.641	16.67
741.956	16.8
742.272	16.97
742.587	17.2
742.903	17.25
743.218	17.25
743.533	17.26
743.849	17.41
744.164	17.64
744.479	17.67
744.794	17.77
745.109	17.9
745.424	17.99
745.739	18.06
746.054	18.07
746.369	18.13
746.684	18.18
746.999	18.18
747.313	18.27
747.628	18.27
747.943	18.25
748.257	18.34
748.572	18.4
748.886	18.45
749.201	18.43
749.515	18.5
749.829	18.54
750.144	18.48
750.458	18.49
750.772	18.41
751.086	18.46
751.4	18.51
751.714	18.45
752.028	18.51
752.342	18.54
752.656	18.72
752.97	18.85
753.284	18.98
753.597	19.04
753.911	19.12
754.225	19.26
754.538	19.41
754.852	19.49
755.165	19.41
755.478	19.31
755.792	19.37
756.105	19.46
756.418	19.6
756.731	19.82
757.045	19.85
757.358	19.88
757.671	20.01
757.984	19.96
758.297	19.94
758.609	19.97
758.922	20.01
759.235	20.03
759.548	19.87
759.86	19.77
760.173	19.68
760.486	19.52
760.798	19.32
761.111	19.2
761.423	19.07
761.735	19.09
762.048	19.1
762.36	19.01
762.672	18.96
762.984	18.96
763.296	18.98
763.608	19.01
763.92	19.13
764.232	19.15
764.544	19.24
764.856	19.33
765.168	19.38
765.48	19.46
765.791	19.42
766.103	19.54
766.414	19.68
766.726	19.89
767.037	20.21
767.349	20.52
767.66	20.75
767.972	21.12
768.283	21.43
768.594	21.8
768.905	22.27
769.216	22.58
769.527	22.74
769.838	22.91
770.149	23.14
770.46	23.26
770.771	23.46
771.082	23.59
771.393	23.95
771.703	24.1
772.014	24.24
772.324	24.49
772.635	24.84
772.945	25.1
773.256	25.25
773.566	25.43
773.877	25.51
774.187	25.77
774.497	26
774.807	26.13
775.117	26.2
775.427	26.3
775.737	26.59
776.047	26.72
776.357	26.76
776.667	26.83
776.977	26.88
777.287	26.92
777.596	27.12
777.906	27.26
778.216	27.36
778.525	27.44
778.835	27.62
779.144	27.57
779.453	27.41
779.763	27.46
780.072	27.46
780.381	27.6
780.69	27.62
781	27.45
781.309	27.44
781.618	27.68
781.927	27.72
782.235	27.83
782.544	28.03
782.853	28.26
783.162	28.41
783.471	28.57
783.779	28.77
784.088	28.8
784.396	28.79
784.705	28.87
785.013	28.78
785.322	28.77
785.63	28.58
785.938	28.5
786.246	28.45
786.554	28.4
786.863	28.2
787.171	28.2
787.479	28.29
787.787	28.44
788.094	28.52
788.402	28.47
788.71	28.36
789.018	28.22
789.326	28.14
789.633	28.21
789.941	28.44
790.248	28.51
790.556	28.62
790.863	28.73
791.171	28.82
791.478	29.08
791.785	29.08
792.092	29.25
792.399	29.6
792.707	29.88
793.014	30.03
793.321	30.36
793.628	30.69
793.934	30.84
794.241	30.67
794.548	30.39
794.855	30.51
795.161	30.5
795.468	30.61
795.775	30.56
796.081	30.67
796.388	30.23
796.694	30.29
797	30.21
797.307	29.97
797.613	29.69
797.919	29.75
798.225	29.84
798.531	29.98
798.837	30.05
799.143	30.05
799.449	30.15
799.755	30.19
800.061	30.04
800.367	29.97
800.672	30.21
800.978	30.39
801.284	30.34
801.589	29.95
801.895	29.72
802.2	30.06
802.506	30.07
802.811	30.39
803.116	30.19
803.421	30.1
803.727	30.39
804.032	30.67
804.337	30.66
804.642	30.72
804.947	30.81
805.252	30.63
805.556	30.57
805.861	30.67
806.166	30.76
806.471	31.01
806.775	31.32
807.08	31.48
807.384	31.66
807.689	32.1
807.993	32.75
808.298	33.01
808.602	33.06
808.906	33.15
809.211	33.41
809.515	33.73
809.819	34.42
810.123	34.77
810.427	35.26
810.731	35.34
811.035	35.24
811.338	35.32
811.642	35.31
811.946	35.54
812.25	35.61
812.553	36.02
812.857	35.86
813.16	35.63
813.464	35.49
813.767	35.61
814.07	35.49
814.374	35.68
814.677	35.96
814.98	36.12
815.283	36.16
815.586	35.93
815.889	36.1
816.192	35.54
816.495	35.05
816.798	34.3
817.101	34.13
817.404	34.06
817.706	33.76
818.009	33.32
818.312	32.74
818.614	31.91
818.917	30.35
819.219	28.6
819.521	26.94
819.824	25.4
820.126	23.95
820.428	23.12
820.73	22.39
821.032	22.07
821.334	21.74
821.636	21.47
821.938	21.41
822.24	21.24
822.542	21.26
822.844	21.25
823.145	21.31
823.447	21.31
823.749	21.25
824.05	21.22
824.352	21.18
824.653	21.12
824.955	21.02
825.256	21.07
825.557	21.23
825.858	21.49
826.16	21.81
826.461	22.37
826.762	22.78
827.063	23.23
827.364	23.56
827.665	24
827.965	24.62
828.266	24.95
828.567	25.27
828.868	25.66
829.168	25.95
829.469	26.19
829.769	26.43
830.07	26.84
830.37	27.12
830.67	27.68
830.971	28.16
831.271	28.85
831.571	29.29
831.871	29.7
832.171	29.98
832.471	30.2
832.771	30.16
833.071	30.26
833.371	30.44
833.671	30.47
833.971	30.43
834.27	30.33
834.57	30.34
834.869	30.61
835.169	30.5
835.468	30.86
835.768	30.89
836.067	30.82
836.367	30.85
836.666	31.08
836.965	31.28
837.264	31.67
837.563	32.12
837.862	33.06
838.161	33.7
838.46	34.43
838.759	35.29
839.058	36.22
839.356	36.99
839.655	37.9
839.954	38.91
840.252	39.61
840.551	40
840.849	40.62
841.148	40.82
841.446	41.13
841.744	41.08
842.043	41.76
842.341	42.58
842.639	42.92
842.937	43.41
843.235	44.35
843.533	45.04
843.831	45.95
844.129	46.18
844.427	47.29
844.724	48.36
845.022	49.11
845.32	49.76
845.617	50.44
845.915	51.16
846.212	51.92
846.51	52.42
846.807	53.02
847.104	53.18
847.402	54.01
847.699	54.27
847.996	53.87
848.293	53.4
848.59	53.45
848.887	54.11
849.184	53.9
849.481	53.57
849.778	53.44
850.074	53.61
850.371	54.45
850.668	54.71
850.964	54.58
851.261	55.05
851.557	55.83
851.854	56.25
852.15	56.43
852.446	56.06
852.743	56.38
853.039	56.55
853.335	56.41
853.631	56.43
853.927	57.4
854.223	58.24
854.519	58.79
854.815	59.53
855.111	59.76
855.406	60.26
855.702	60.73
855.998	61.16
856.293	61.34
856.589	61.2
856.884	61.12
857.18	61.7
857.475	62.33
857.77	62.51
858.066	62.46
858.361	62.87
858.656	63.34
858.951	62.83
859.246	63.18
859.541	64.23
859.836	63.79
860.131	63.13
860.426	63.23
860.72	63.29
861.015	62.58
861.31	62.46
861.604	62.21
861.899	62.05
862.193	61.94
862.487	62.04
862.782	61.95
863.076	61.84
863.37	61.66
863.664	61.06
863.959	59.7
864.253	59.19
864.547	59.32
864.841	59.2
865.135	59.3
865.428	58.53
865.722	58.37
866.016	58.79
866.31	58.96
866.603	59.09
866.897	59.03
867.19	58.67
867.484	58.46
867.777	59.24
868.07	58.91
868.364	59.11
868.657	59.28
868.95	60.28
869.243	61.36
869.536	61.28
869.829	61.98
870.122	63.29
870.415	63.96
870.708	62.78
871	62.63
871.293	63.32
871.586	63.99
871.878	62.95
872.171	62.48
872.463	61.99
872.756	61.99
873.048	61.79
873.341	62.22
873.633	62.2
873.925	61.6
874.217	62.11
874.509	62.02
874.801	61.77
875.093	60.67
875.385	59.21
875.677	58.79
875.969	57.48
